VARIABLES=
"r"
"z"
"Rho"
"Vz"
"Vr"
"Vl"
"Vphi"
"Energy"
"Hz"
"Hr"
"Hphi*r"
"Hphi"
ZONE 
 F=FEPOINT, ET=Quadrilateral, N=20301 E=20000
 0 0.2 1 0.491468 0.786349 0.927301 0 0.0621891 0.3 0.48 0.5 2.5
0.005 0.2079 0.965721 0.496108 0.773929 0.919287 0.0129809 0.0617859 0.303175 0.472953 0.481739 2.31717
0.01 0.2156 0.934357 0.502804 0.764262 0.914827 0.0250882 0.0613707 0.306673 0.466143 0.48159 2.23372
0.015 0.2231 0.905544 0.511287 0.756705 0.913246 0.0361774 0.0609449 0.310464 0.459487 0.482961 2.16477
0.02 0.2304 0.878993 0.521454 0.750894 0.914197 0.0462453 0.0605109 0.31452 0.452908 0.484978 2.10494
0.025 0.2375 0.854454 0.533127 0.746377 0.917226 0.0553268 0.0600703 0.318811 0.446335 0.487214 2.05143
0.03 0.2444 0.831712 0.546146 0.742759 0.921937 0.0634658 0.0596241 0.323311 0.439704 0.489438 2.00261
0.035 0.2511 0.810573 0.560383 0.739706 0.928006 0.0707065 0.0591727 0.327995 0.432954 0.491516 1.95745
0.04 0.2576 0.790871 0.575731 0.736935 0.935168 0.0770905 0.0587161 0.332837 0.426032 0.493363 1.91523
0.045 0.2639 0.772455 0.592099 0.734203 0.943205 0.0826564 0.0582541 0.337813 0.418888 0.494924 1.87542
0.05 0.27 0.755196 0.609413 0.731295 0.951933 0.0874393 0.0577862 0.342899 0.411479 0.496163 1.83764
0.055 0.2759 0.738975 0.627603 0.728019 0.961196 0.0914715 0.0573119 0.348072 0.403763 0.497054 1.80157
0.06 0.2816 0.72369 0.646608 0.724201 0.97086 0.0947826 0.0568305 0.353308 0.395705 0.49758 1.76697
0.065 0.2871 0.709248 0.666371 0.71968 0.980811 0.0973996 0.0563412 0.358585 0.387272 0.497727 1.73364
0.07 0.2924 0.695566 0.686833 0.714306 0.990946 0.0993474 0.0558433 0.36388 0.378435 0.497487 1.70139
0.075 0.2975 0.682569 0.707941 0.707941 1.00118 0.100649 0.055336 0.369171 0.369171 0.496853 1.6701
0.08 0.3024 0.670191 0.729638 0.700452 1.01144 0.101326 0.0548184 0.374434 0.359456 0.495821 1.63962
0.085 0.3071 0.658371 0.751868 0.691719 1.02166 0.101398 0.0542897 0.379646 0.349274 0.494388 1.60986
0.09 0.3116 0.647054 0.774576 0.681627 1.03179 0.100884 0.0537492 0.384785 0.338611 0.492552 1.58072
0.095 0.3159 0.636191 0.797702 0.67007 1.04179 0.0998019 0.053196 0.389829 0.327456 0.490312 1.55211
0.1 0.32 0.625736 0.821186 0.656949 1.05163 0.0981674 0.0526294 0.394754 0.315803 0.487668 1.52396
0.105 0.3239 0.615649 0.844969 0.642176 1.0613 0.0959966 0.0520488 0.399539 0.303649 0.484622 1.49621
0.11 0.3276 0.605891 0.868986 0.62567 1.07079 0.0933044 0.0514537 0.40416 0.290995 0.481176 1.46879
0.115 0.3311 0.596429 0.893174 0.607358 1.08011 0.0901051 0.0508434 0.408596 0.277845 0.477332 1.44165
0.12 0.3344 0.587232 0.917469 0.58718 1.08928 0.0864126 0.0502176 0.412826 0.264209 0.473093 1.41475
0.125 0.3375 0.578271 0.941805 0.565083 1.09832 0.0822403 0.049576 0.416829 0.250098 0.468466 1.38805
0.13 0.3404 0.56952 0.966116 0.541025 1.10729 0.0776009 0.0489184 0.420586 0.235528 0.463455 1.3615
0.135 0.3431 0.560956 0.990337 0.514975 1.11623 0.0725073 0.0482448 0.424078 0.22052 0.458066 1.33508
0.14 0.3456 0.552558 1.0144 0.486913 1.12521 0.0669718 0.0475552 0.427286 0.205097 0.452308 1.30876
0.145 0.3479 0.544307 1.03825 0.456828 1.1343 0.0610066 0.0468498 0.430194 0.189286 0.446189 1.28252
0.15 0.35 0.536186 1.06181 0.424723 1.1436 0.0546238 0.046129 0.432788 0.173115 0.439718 1.25634
0.155 0.3519 0.52818 1.08502 0.390608 1.15319 0.0478351 0.0453934 0.435054 0.156619 0.432908 1.2302
0.16 0.3536 0.520275 1.10784 0.354508 1.16318 0.0406526 0.0446436 0.436979 0.139833 0.425769 1.2041
0.165 0.3551 0.51246 1.13019 0.316453 1.17366 0.0330878 0.0438804 0.438555 0.122795 0.418315 1.17802
0.17 0.3564 0.504726 1.15203 0.276487 1.18474 0.0251524 0.0431049 0.439772 0.105545 0.410561 1.15197
0.175 0.3575 0.497063 1.17331 0.234662 1.19654 0.016858 0.0423181 0.440624 0.0881249 0.402521 1.12593
0.18 0.3584 0.489465 1.19398 0.191036 1.20916 0.00821604 0.0415212 0.441108 0.0705773 0.394213 1.09993
0.185 0.3591 0.481927 1.214 0.14568 1.22271 -0.000762064 0.0407157 0.441222 0.0529466 0.385655 1.07395
0.19 0.3596 0.474445 1.23333 0.0986665 1.23727 -0.0100651 0.039903 0.440964 0.0352772 0.376864 1.04801
0.195 0.3599 0.467016 1.25194 0.0500778 1.25295 -0.019682 0.0390847 0.440338 0.0176135 0.36786 1.02212
0.2 0.36 0.459639 1.26981 0 1.26981 -0.029602 0.0382624 0.439348 0 0.358663 0.996287
0.205 0.3599 0.452314 1.28691 -0.0514763 1.28794 -0.0398145 0.0374379 0.437999 -0.0175199 0.349295 0.970533
0.21 0.3596 0.445042 1.30321 -0.104257 1.30738 -0.0503093 0.0366128 0.436299 -0.0349039 0.339776 0.944872
0.215 0.3591 0.437825 1.31871 -0.158246 1.32817 -0.0610764 0.0357891 0.434258 -0.0521109 0.330128 0.919321
0.22 0.3584 0.430665 1.3334 -0.213344 1.35036 -0.0721066 0.0349684 0.431887 -0.0691019 0.320374 0.893901
0.225 0.3575 0.423566 1.34727 -0.269454 1.37395 -0.0833909 0.0341527 0.429199 -0.0858398 0.310536 0.868631
0.23 0.3564 0.416534 1.36032 -0.326476 1.39895 -0.094921 0.0333435 0.426208 -0.10229 0.300635 0.843532
0.235 0.3551 0.409572 1.37255 -0.384313 1.42534 -0.106689 0.0325427 0.422929 -0.11842 0.290694 0.818626
0.24 0.3536 0.402687 1.38396 -0.442868 1.45309 -0.118689 0.031752 0.41938 -0.134202 0.280735 0.793934
0.245 0.3519 0.395885 1.39457 -0.502046 1.48219 -0.130914 0.0309729 0.415576 -0.149607 0.270779 0.769478
0.25 0.35 0.389173 1.40439 -0.561755 1.51257 -0.143359 0.030207 0.411536 -0.164614 0.260848 0.745279
0.255 0.3479 0.382557 1.41342 -0.621905 1.54419 -0.15602 0.0294558 0.407278 -0.179202 0.25096 0.721358
0.26 0.3456 0.376046 1.42169 -0.68241 1.57698 -0.168894 0.0287205 0.402821 -0.193354 0.241137 0.697734
0.265 0.3431 0.369647 1.4292 -0.743185 1.61088 -0.181977 0.0280025 0.398183 -0.207055 0.231396 0.674426
0.27 0.3404 0.363366 1.43598 -0.80415 1.64581 -0.19527 0.027303 0.393385 -0.220296 0.221755 0.651453
0.275 0.3375 0.357214 1.44205 -0.865227 1.6817 -0.208773 0.0266229 0.388444 -0.233066 0.21223 0.628831
0.28 0.3344 0.351196 1.44741 -0.926341 1.71846 -0.222485 0.0259633 0.38338 -0.245363 0.202839 0.606575
0.285 0.3311 0.345322 1.45209 -0.98742 1.75601 -0.23641 0.0253251 0.378211 -0.257183 0.193594 0.584698
0.29 0.3276 0.339599 1.4561 -1.04839 1.79425 -0.250551 0.0247089 0.372954 -0.268527 0.184509 0.563214
0.295 0.3239 0.334034 1.45946 -1.10919 1.83312 -0.264913 0.0241156 0.367629 -0.279398 0.175597 0.542133
0.3 0.32 0.328636 1.46218 -1.16974 1.8725 -0.279501 0.0235455 0.36225 -0.2898 0.166868 0.521462
0.305 0.3159 0.323412 1.46427 -1.22998 1.91231 -0.294323 0.0229994 0.356836 -0.299742 0.158332 0.50121
0.31 0.3116 0.318369 1.46574 -1.28985 1.95246 -0.309385 0.0224775 0.351402 -0.309234 0.149998 0.481381
0.315 0.3071 0.313515 1.4666 -1.34927 1.99285 -0.324697 0.0219802 0.345962 -0.318285 0.141874 0.461979
0.32 0.3024 0.308856 1.46685 -1.40818 2.03338 -0.340269 0.0215078 0.340532 -0.326911 0.133965 0.443005
0.325 0.2975 0.3044 1.4665 -1.4665 2.07394 -0.356109 0.0210604 0.335125 -0.335125 0.126276 0.424459
0.33 0.2924 0.300152 1.46554 -1.52416 2.11444 -0.37223 0.0206381 0.329754 -0.342945 0.118813 0.406338
0.335 0.2871 0.296121 1.46396 -1.58108 2.15476 -0.388641 0.0202411 0.324433 -0.350387 0.111578 0.38864
0.34 0.2816 0.29231 1.46177 -1.63718 2.19479 -0.405354 0.0198693 0.319171 -0.357472 0.104574 0.371358
0.345 0.2759 0.288727 1.45894 -1.69237 2.23442 -0.422379 0.0195226 0.313983 -0.36422 0.0978024 0.354485
0.35 0.27 0.285378 1.45546 -1.74656 2.27351 -0.439727 0.0192008 0.308877 -0.370652 0.0912633 0.338012
0.355 0.2639 0.282267 1.45132 -1.79964 2.31194 -0.457406 0.0189038 0.303864 -0.376791 0.0849572 0.32193
0.36 0.2576 0.2794 1.4465 -1.85151 2.34957 -0.475425 0.0186313 0.298955 -0.382663 0.0788835 0.306225
0.365 0.2511 0.276782 1.44096 -1.90206 2.38625 -0.49379 0.0183827 0.29416 -0.388291 0.0730411 0.290884
0.37 0.2444 0.274418 1.43467 -1.95116 2.42184 -0.512506 0.0181578 0.289488 -0.393703 0.0674285 0.275894
0.375 0.2375 0.272313 1.42762 -1.99867 2.45617 -0.531575 0.017956 0.284949 -0.398928 0.0620438 0.261237
0.38 0.2304 0.27047 1.41976 -2.04445 2.48908 -0.550996 0.0177765 0.280553 -0.403996 0.056885 0.246897
0.385 0.2231 0.268895 1.41106 -2.08836 2.52039 -0.570764 0.0176186 0.27631 -0.408939 0.05195 0.232855
0.39 0.2156 0.267592 1.40147 -2.13024 2.54991 -0.590872 0.0174814 0.272232 -0.413793 0.0472364 0.219093
0.395 0.2079 0.266565 1.39096 -2.1699 2.57745 -0.611307 0.017364 0.26833 -0.418594 0.0427422 0.20559
0.4 0.2 0.265818 1.37949 -2.20718 2.60281 -0.632053 0.017265 0.264616 -0.423386 0.0384655 0.192328
0.405 0.1919 0.265357 1.36701 -2.24189 2.6258 -0.653087 0.0171832 0.261106 -0.428215 0.0344047 0.179285
0.41 0.1836 0.265187 1.35348 -2.27384 2.64618 -0.674382 0.0171172 0.257817 -0.433133 0.0305586 0.166441
0.415 0.1751 0.265316 1.33886 -2.30283 2.66375 -0.695904 0.0170653 0.254768 -0.438201 0.0269266 0.153778
0.42 0.1664 0.265753 1.3231 -2.32866 2.67829 -0.717612 0.0170258 0.251983 -0.443489 0.0235086 0.141278
0.425 0.1575 0.26651 1.30618 -2.35113 2.68959 -0.739461 0.0169966 0.24949 -0.449083 0.0203054 0.128923
0.43 0.1484 0.267605 1.28806 -2.37004 2.69744 -0.761395 0.0169758 0.247327 -0.455082 0.0173184 0.116701
0.435 0.1391 0.269065 1.26873 -2.38521 2.70165 -0.783351 0.016961 0.245539 -0.461614 0.01455 0.104601
0.44 0.1296 0.270924 1.24817 -2.39648 2.70205 -0.805255 0.0169501 0.244187 -0.468839 0.0120032 0.0926169
0.445 0.1199 0.273241 1.2264 -2.40374 2.69852 -0.82702 0.0169406 0.24335 -0.476965 0.00968196 0.0807503
0.45 0.11 0.276096 1.20346 -2.40692 2.69102 -0.848542 0.0169303 0.243137 -0.486274 0.00759103 0.0690094
0.455 0.0999 0.279619 1.17946 -2.40609 2.67962 -0.869693 0.016917 0.243702 -0.497152 0.00573556 0.057413
0.46 0.0896 0.28401 1.15457 -2.4015 2.66463 -0.890306 0.016899 0.245268 -0.510157 0.00412101 0.0459935
0.465 0.0791 0.289592 1.12912 -2.39374 2.64667 -0.910151 0.0168753 0.248174 -0.526128 0.00275276 0.034801
0.47 0.0684 0.29691 1.10368 -2.38395 2.62704 -0.928889 0.0168465 0.25296 -0.546393 0.00163549 0.0239106
0.475 0.0575 0.306931 1.07927 -2.37438 2.60816 -0.945967 0.0168158 0.26055 -0.573211 0.000772473 0.0134343
0.48 0.0464 0.32152 1.05778 -2.36942 2.59481 -0.960382 0.016792 0.272677 -0.610796 0.000164451 0.0035442
0.485 0.0351 0.344742 1.04305 -2.37815 2.59683 -0.970054 0.0167951 0.293036 -0.668122 -0.000192055 -0.00547164
0.49 0.0236 0.387373 1.0439 -2.42185 2.63725 -0.969896 0.0168716 0.331304 -0.768626 -0.000307739 -0.0130398
0.495 0.0119 0.4898 1.08582 -2.56253 2.78308 -0.944849 0.0171356 0.423405 -0.999236 -0.000208618 -0.0175309
0.5 0.0025 0.978557 1.16136 0 1.16136 0 0.0178114 0.859991 0 0 0
0.505 0.0025 0.871946 1.1828 0 1.1828 0 0.0179272 0.781838 0 0 0
0.51 0.0025 0.809432 1.20116 0 1.20116 0 0.0179712 0.741095 0 0 0
0.515 0.0025 0.768128 1.21647 0 1.21647 0 0.0179699 0.717655 0 0 0
0.52 0.0025 0.738351 1.2293 0 1.2293 0 0.0179393 0.703257 0 0 0
0.525 0.0025 0.715486 1.24021 0 1.24021 0 0.0178893 0.69407 0 0 0
0.53 0.0025 0.697099 1.24962 0 1.24962 0 0.0178258 0.688117 0 0 0
0.535 0.0025 0.681789 1.25783 0 1.25783 0 0.0177529 0.684288 0 0 0
0.54 0.0025 0.668696 1.26509 0 1.26509 0 0.0176733 0.681913 0 0 0
0.545 0.0025 0.657259 1.27156 0 1.27156 0 0.0175889 0.680568 0 0 0
0.55 0.0025 0.647099 1.27739 0 1.27739 0 0.0175011 0.679969 0 0 0
0.555 0.0025 0.637948 1.28267 0 1.28267 0 0.0174108 0.679923 0 0 0
0.56 0.0025 0.629612 1.28749 0 1.28749 0 0.0173189 0.680291 0 0 0
0.565 0.0025 0.621945 1.29191 0 1.29191 0 0.0172259 0.680973 0 0 0
0.57 0.0025 0.614839 1.296 0 1.296 0 0.0171323 0.681895 0 0 0
0.575 0.0025 0.608207 1.29978 0 1.29978 0 0.0170385 0.683 0 0 0
0.58 0.0025 0.601982 1.30331 0 1.30331 0 0.0169449 0.684246 0 0 0
0.585 0.0025 0.596112 1.30661 0 1.30661 0 0.0168515 0.6856 0 0 0
0.59 0.0025 0.590553 1.3097 0 1.3097 0 0.0167586 0.687035 0 0 0
0.595 0.0025 0.585268 1.31262 0 1.31262 0 0.0166664 0.688531 0 0 0
0.6 0.0025 0.58023 1.31537 0 1.31537 0 0.0165751 0.690072 0 0 0
0.605 0.0025 0.575413 1.31798 0 1.31798 0 0.0164846 0.691644 0 0 0
0.61 0.0025 0.570797 1.32045 0 1.32045 0 0.0163952 0.693236 0 0 0
0.615 0.0025 0.566364 1.32281 0 1.32281 0 0.0163068 0.694841 0 0 0
0.62 0.0025 0.5621 1.32506 0 1.32506 0 0.0162196 0.696451 0 0 0
0.625 0.0025 0.557992 1.32721 0 1.32721 0 0.0161336 0.69806 0 0 0
0.63 0.0025 0.554028 1.32926 0 1.32926 0 0.0160489 0.699664 0 0 0
0.635 0.0025 0.5502 1.33124 0 1.33124 0 0.0159654 0.701259 0 0 0
0.64 0.0025 0.546498 1.33313 0 1.33313 0 0.0158832 0.702842 0 0 0
0.645 0.0025 0.542916 1.33496 0 1.33496 0 0.0158024 0.70441 0 0 0
0.65 0.0025 0.539447 1.33671 0 1.33671 0 0.0157229 0.705961 0 0 0
0.655 0.0025 0.536084 1.33841 0 1.33841 0 0.0156448 0.707494 0 0 0
0.66 0.0025 0.532823 1.34004 0 1.34004 0 0.0155681 0.709007 0 0 0
0.665 0.0025 0.52966 1.34162 0 1.34162 0 0.0154928 0.710499 0 0 0
0.67 0.0025 0.526589 1.34315 0 1.34315 0 0.0154188 0.711969 0 0 0
0.675 0.0025 0.523607 1.34462 0 1.34462 0 0.0153463 0.713416 0 0 0
0.68 0.0025 0.520711 1.34605 0 1.34605 0 0.0152752 0.714841 0 0 0
0.685 0.0025 0.517898 1.34744 0 1.34744 0 0.0152054 0.716242 0 0 0
0.69 0.0025 0.515164 1.34878 0 1.34878 0 0.015137 0.717619 0 0 0
0.695 0.0025 0.512507 1.35007 0 1.35007 0 0.0150701 0.718972 0 0 0
0.7 0.0025 0.509925 1.35133 0 1.35133 0 0.0150045 0.720302 0 0 0
0.705 0.0025 0.507414 1.35254 0 1.35254 0 0.0149403 0.721607 0 0 0
0.71 0.0025 0.504974 1.35372 0 1.35372 0 0.0148774 0.722888 0 0 0
0.715 0.0025 0.502602 1.35486 0 1.35486 0 0.0148159 0.724145 0 0 0
0.72 0.0025 0.500295 1.35597 0 1.35597 0 0.0147558 0.725377 0 0 0
0.725 0.0025 0.498054 1.35704 0 1.35704 0 0.014697 0.726586 0 0 0
0.73 0.0025 0.495875 1.35807 0 1.35807 0 0.0146395 0.727771 0 0 0
0.735 0.0025 0.493757 1.35907 0 1.35907 0 0.0145833 0.728932 0 0 0
0.74 0.0025 0.491699 1.36003 0 1.36003 0 0.0145285 0.73007 0 0 0
0.745 0.0025 0.489699 1.36096 0 1.36096 0 0.0144749 0.731184 0 0 0
0.75 0.0025 0.487756 1.36186 0 1.36186 0 0.0144226 0.732275 0 0 0
0.755 0.0025 0.485868 1.36272 0 1.36272 0 0.0143715 0.733343 0 0 0
0.76 0.0025 0.484035 1.36355 0 1.36355 0 0.0143217 0.734388 0 0 0
0.765 0.0025 0.482255 1.36435 0 1.36435 0 0.0142732 0.73541 0 0 0
0.77 0.0025 0.480527 1.36512 0 1.36512 0 0.0142258 0.736409 0 0 0
0.775 0.0025 0.478849 1.36585 0 1.36585 0 0.0141797 0.737386 0 0 0
0.78 0.0025 0.477221 1.36655 0 1.36655 0 0.0141347 0.73834 0 0 0
0.785 0.0025 0.475642 1.36722 0 1.36722 0 0.0140909 0.739273 0 0 0
0.79 0.0025 0.47411 1.36786 0 1.36786 0 0.0140482 0.740183 0 0 0
0.795 0.0025 0.472625 1.36847 0 1.36847 0 0.0140067 0.741071 0 0 0
0.8 0.0025 0.471185 1.36904 0 1.36904 0 0.0139663 0.741938 0 0 0
0.805 0.0025 0.46979 1.36959 0 1.36959 0 0.013927 0.742783 0 0 0
0.81 0.0025 0.468438 1.3701 0 1.3701 0 0.0138887 0.743606 0 0 0
0.815 0.0025 0.467129 1.37058 0 1.37058 0 0.0138516 0.744408 0 0 0
0.82 0.0025 0.465861 1.37103 0 1.37103 0 0.0138155 0.745188 0 0 0
0.825 0.0025 0.464634 1.37146 0 1.37146 0 0.0137804 0.745948 0 0 0
0.83 0.0025 0.463447 1.37185 0 1.37185 0 0.0137463 0.746686 0 0 0
0.835 0.0025 0.462299 1.37221 0 1.37221 0 0.0137132 0.747403 0 0 0
0.84 0.0025 0.461189 1.37254 0 1.37254 0 0.0136812 0.748098 0 0 0
0.845 0.0025 0.460116 1.37284 0 1.37284 0 0.01365 0.748773 0 0 0
0.85 0.0025 0.459079 1.37311 0 1.37311 0 0.0136198 0.749427 0 0 0
0.855 0.0025 0.458078 1.37336 0 1.37336 0 0.0135906 0.75006 0 0 0
0.86 0.0025 0.457112 1.37357 0 1.37357 0 0.0135622 0.750672 0 0 0
0.865 0.0025 0.456179 1.37376 0 1.37376 0 0.0135347 0.751263 0 0 0
0.87 0.0025 0.455279 1.37392 0 1.37392 0 0.0135081 0.751833 0 0 0
0.875 0.0025 0.454411 1.37405 0 1.37405 0 0.0134824 0.752383 0 0 0
0.88 0.0025 0.453575 1.37416 0 1.37416 0 0.0134575 0.752911 0 0 0
0.885 0.0025 0.45277 1.37424 0 1.37424 0 0.0134335 0.753419 0 0 0
0.89 0.0025 0.451994 1.37429 0 1.37429 0 0.0134102 0.753905 0 0 0
0.895 0.0025 0.451248 1.37432 0 1.37432 0 0.0133878 0.754371 0 0 0
0.9 0.0025 0.450531 1.37433 0 1.37433 0 0.0133661 0.754816 0 0 0
0.905 0.0025 0.449842 1.37431 0 1.37431 0 0.0133452 0.75524 0 0 0
0.91 0.0025 0.449181 1.37428 0 1.37428 0 0.0133252 0.755642 0 0 0
0.915 0.0025 0.448547 1.37422 0 1.37422 0 0.0133058 0.756024 0 0 0
0.92 0.0025 0.44794 1.37415 0 1.37415 0 0.0132873 0.756384 0 0 0
0.925 0.0025 0.447361 1.37406 0 1.37406 0 0.0132695 0.756723 0 0 0
0.93 0.0025 0.446808 1.37395 0 1.37395 0 0.0132525 0.757041 0 0 0
0.935 0.0025 0.446282 1.37383 0 1.37383 0 0.0132363 0.757338 0 0 0
0.94 0.0025 0.445783 1.3737 0 1.3737 0 0.0132209 0.757613 0 0 0
0.945 0.0025 0.445313 1.37356 0 1.37356 0 0.0132063 0.757866 0 0 0
0.95 0.0025 0.444871 1.37341 0 1.37341 0 0.0131926 0.758097 0 0 0
0.955 0.0025 0.444459 1.37326 0 1.37326 0 0.0131799 0.758306 0 0 0
0.96 0.0025 0.444078 1.3731 0 1.3731 0 0.013168 0.758494 0 0 0
0.965 0.0025 0.443732 1.37296 0 1.37296 0 0.0131572 0.758658 0 0 0
0.97 0.0025 0.443421 1.37281 0 1.37281 0 0.0131476 0.758801 0 0 0
0.975 0.0025 0.443149 1.37268 0 1.37268 0 0.0131391 0.75892 0 0 0
0.98 0.0025 0.44292 1.37256 0 1.37256 0 0.013132 0.759016 0 0 0
0.985 0.0025 0.442739 1.37247 0 1.37247 0 0.0131264 0.759088 0 0 0
0.99 0.0025 0.442611 1.37239 0 1.37239 0 0.0131224 0.759137 0 0 0
0.995 0.0025 0.442543 1.37235 0 1.37235 0 0.0131203 0.759161 0 0 0
1 0.0025 0.442543 1.37235 0 1.37235 0 0.0131203 0.759161 0 0 0
0 0.206 1 0.490744 0.777338 0.919285 0 0.0621891 0.3 0.4752 0.5 2.42718
0.005 0.213821 0.965721 0.496108 0.748562 0.898036 0.0129809 0.0617859 0.303175 0.467773 0.495459 2.31717
0.01 0.221444 0.934357 0.502804 0.731202 0.887394 0.0250882 0.0613707 0.306673 0.460794 0.494644 2.23372
0.015 0.228869 0.905544 0.511287 0.719569 0.88272 0.0361774 0.0609449 0.310464 0.454052 0.495449 2.16477
0.02 0.236096 0.878993 0.521454 0.71131 0.881972 0.0462453 0.0605109 0.31452 0.447433 0.496967 2.10494
0.025 0.243125 0.854454 0.533127 0.705213 0.884053 0.0553268 0.0600703 0.318811 0.440855 0.498753 2.05143
0.03 0.249956 0.831712 0.546146 0.700541 0.888276 0.0634658 0.0596241 0.323311 0.434247 0.500565 2.00261
0.035 0.256589 0.810573 0.560383 0.696783 0.894168 0.0707065 0.0591727 0.327995 0.427547 0.50226 1.95745
0.04 0.263024 0.790871 0.575731 0.693556 0.90138 0.0770905 0.0587161 0.332837 0.420698 0.503751 1.91523
0.045 0.269261 0.772455 0.592099 0.69056 0.909645 0.0826564 0.0582541 0.337813 0.41365 0.504978 1.87542
0.05 0.2753 0.755196 0.609413 0.687541 0.918747 0.0874393 0.0577862 0.342899 0.406358 0.505902 1.83764
0.055 0.281141 0.738975 0.627603 0.684286 0.928511 0.0914715 0.0573119 0.348072 0.398782 0.506496 1.80157
0.06 0.286784 0.72369 0.646608 0.680606 0.93879 0.0947826 0.0568305 0.353308 0.390883 0.50674 1.76697
0.065 0.292229 0.709248 0.666371 0.676332 0.94946 0.0973996 0.0563412 0.358585 0.38263 0.506619 1.73364
0.07 0.297476 0.695566 0.686833 0.671311 0.960416 0.0993474 0.0558433 0.36388 0.373994 0.506123 1.70139
0.075 0.302525 0.682569 0.707941 0.665404 0.971567 0.100649 0.055336 0.369171 0.364949 0.505246 1.6701
0.08 0.307376 0.670191 0.729638 0.658481 0.982837 0.101326 0.0548184 0.374434 0.355474 0.50398 1.63962
0.085 0.312029 0.658371 0.751868 0.650423 0.994161 0.101398 0.0542897 0.379646 0.345552 0.502323 1.60986
0.09 0.316484 0.647054 0.774576 0.641119 1.00549 0.100884 0.0537492 0.384785 0.335167 0.500272 1.58072
0.095 0.320741 0.636191 0.797702 0.630469 1.01677 0.0998019 0.053196 0.389829 0.32431 0.497825 1.55211
0.1 0.3248 0.625736 0.821186 0.618379 1.02798 0.0981674 0.0526294 0.394754 0.312972 0.494983 1.52396
0.105 0.328661 0.615649 0.844969 0.604766 1.03909 0.0959966 0.0520488 0.399539 0.301151 0.491746 1.49621
0.11 0.332324 0.605891 0.868986 0.589552 1.0501 0.0933044 0.0514537 0.40416 0.288848 0.488114 1.46879
0.115 0.335789 0.596429 0.893174 0.572672 1.061 0.0901051 0.0508434 0.408596 0.276065 0.484091 1.44165
0.12 0.339056 0.587232 0.917469 0.554067 1.07179 0.0864126 0.0502176 0.412826 0.262811 0.479681 1.41475
0.125 0.342125 0.578271 0.941805 0.533689 1.08251 0.0822403 0.049576 0.416829 0.249097 0.474886 1.38805
0.13 0.344996 0.56952 0.966116 0.511498 1.09317 0.0776009 0.0489184 0.420586 0.234939 0.469712 1.3615
0.135 0.347669 0.560956 0.990337 0.487466 1.10381 0.0725073 0.0482448 0.424078 0.220355 0.464166 1.33508
