VARIABLES=
"X"
"Y"
"Rho"
"Vz"
"Vr"
"Vl"
"Vphi"
"Energy"
"Hz"
"Hr"
"Hphi*r"
"Hphi"
ZONE 
 F=FEPOINT, ET=Quadrilateral, N=3321 E=3200
 0 0.3 1 -0.00231924 -0.00231924 0.0032799 0 0.746269 0.1 0.1 0.55 1.83333
0.0125 0.312344 1.13861 -0.0019564 -0.00190749 0.00273241 -0.271814 0.621711 0.158657 0.154691 0.549222 1.75839
0.025 0.324375 1.02918 -0.0288126 -0.027372 0.0397415 -0.813734 0.571533 0.141497 0.134422 0.577957 1.78175
0.0375 0.336094 0.886167 0.0107349 0.00992975 0.0146232 -1.09162 0.527241 0.105745 0.0978145 0.603447 1.79547
0.05 0.3475 0.819545 0.0380531 0.0342478 0.0511953 -1.01187 0.518157 0.0818501 0.073665 0.614777 1.76914
0.0625 0.358594 0.812402 0.0519677 0.0454717 0.069053 -0.751841 0.528427 0.0713385 0.0624212 0.618316 1.72428
0.075 0.369375 0.811848 0.0557946 0.0474254 0.0732271 -0.465351 0.544081 0.0662923 0.0563485 0.615708 1.66689
0.0875 0.379844 0.804262 0.0648675 0.0535157 0.0840935 -0.144378 0.557257 0.066116 0.0545457 0.614356 1.61739
0.1 0.39 0.77753 0.0837998 0.0670398 0.107316 0.219309 0.563111 0.0694295 0.0555436 0.617193 1.58255
0.1125 0.399844 0.722983 0.125806 0.0974994 0.159164 0.631252 0.551332 0.0787673 0.0610446 0.62757 1.56954
0.125 0.409375 0.652633 0.178263 0.133697 0.222829 1.00834 0.51829 0.0935346 0.070151 0.646016 1.57805
0.1375 0.418594 0.605616 0.221416 0.160527 0.273485 1.12338 0.480999 0.110869 0.0803797 0.664996 1.58864
0.15 0.4275 0.610448 0.222394 0.155676 0.271466 0.875193 0.465136 0.123657 0.0865602 0.680014 1.59068
0.1625 0.436094 0.642879 0.202192 0.13648 0.243944 0.471987 0.465201 0.124869 0.0842863 0.693331 1.58987
0.175 0.444375 0.662639 0.200172 0.130112 0.238743 0.117168 0.468635 0.113535 0.0737976 0.708218 1.59374
0.1875 0.452344 0.660805 0.223291 0.139557 0.263315 -0.112258 0.470833 0.0971228 0.0607017 0.721156 1.59427
0.2 0.46 0.651132 0.258687 0.155212 0.301678 -0.214693 0.470981 0.083126 0.0498756 0.733366 1.59427
0.2125 0.467344 0.638901 0.293988 0.169043 0.339124 -0.201606 0.468906 0.0744077 0.0427844 0.743209 1.59028
0.225 0.474375 0.628834 0.341567 0.187862 0.389821 -0.088006 0.468201 0.07301 0.0401555 0.754965 1.59149
0.2375 0.481094 0.61495 0.392912 0.206279 0.443768 0.102828 0.467222 0.0790485 0.0415005 0.765022 1.59017
0.25 0.4875 0.607934 0.266 0.133 0.297397 0.358645 1.01473 0.104407 0.0522033 0.79494 1.63065
0.2625 0.493594 0.71284 -5.5261 -2.6249 6.11783 1.12705 80.3705 2.09546 0.995345 1.04036 2.10772
0.275 0.499375 1.36502 -24.6697 -11.1014 27.0524 1.3233 618.461 31.5077 14.1785 1.43221 2.86801
0.2875 0.504844 2.40302 -59.937 -25.4732 65.1255 -0.689235 1126.68 116.16 49.3682 1.11975 2.21802
0.3 0.51 2.12569 -104.148 -41.6594 112.171 -2.60521 1209.27 136.496 54.5982 1.38386 2.71345
0.3125 0.514844 1.31196 -117.134 -43.9254 125.1 -4.03542 1074.91 82.7363 31.0261 1.78959 3.47598
0.325 0.519375 0.861907 -91.7454 -32.1109 97.2025 -4.93454 925.805 37.6874 13.1906 1.70938 3.29122
0.3375 0.523594 0.742286 -58.1942 -18.9131 61.1905 -4.41468 879.887 9.83104 3.19509 1.3358 2.55121
0.35 0.5275 0.855588 -36.1038 -10.8311 37.6935 -2.46852 953.465 -11.7814 -3.53443 0.596876 1.13152
0.3625 0.531094 1.08568 -31.2917 -8.60522 32.4534 -0.685722 960.09 -33.0099 -9.07773 -0.295934 -0.557216
0.375 0.534375 1.1178 -42.848 -10.712 44.1667 -0.12293 812.571 -41.4158 -10.354 -0.329941 -0.617433
0.3875 0.537344 0.96047 -52.8334 -11.8875 54.1542 0.83728 628.908 -34.5746 -7.77928 0.24719 0.460022
0.4 0.54 0.850093 -53.2908 -10.6582 54.3462 2.42742 570.574 -23.8088 -4.76176 0.897027 1.66116
0.4125 0.542344 0.849325 -47.3329 -8.28326 48.0522 3.45576 595.371 -13.463 -2.35602 1.38146 2.54721
0.425 0.544375 0.889566 -40.5079 -6.07619 40.9611 3.23947 637.049 -2.50381 -0.375572 1.36584 2.509
0.4375 0.546094 0.940615 -36.4154 -4.55193 36.6988 1.84866 663.514 7.79655 0.974569 0.801353 1.46743
0.45 0.5475 1.00149 -37.4656 -3.74656 37.6525 0.367627 669.623 15.8767 1.58767 0.233866 0.427153
0.4625 0.548594 1.00044 -41.9186 -3.14389 42.0363 -0.371184 647.589 19.9329 1.49497 0.155648 0.283722
0.475 0.549375 0.886187 -44.9231 -2.24616 44.9793 -0.770161 595.317 18.0747 0.903733 0.347615 0.632746
0.4875 0.549844 0.749993 -43.2918 -1.08229 43.3053 -1.09533 549.282 12.6438 0.316094 0.465898 0.847327
0.5 0.55 0.65909 -38.2069 -0 38.2069 -1.11045 538.604 7.46632 0 0.459089 0.834707
0.5125 0.549844 0.599358 -32.1955 0.804888 32.2056 -0.817293 554.743 3.95111 -0.0987777 0.368746 0.670638
0.525 0.549375 0.543189 -26.2955 1.31478 26.3284 -0.427333 582.062 1.98134 -0.099067 0.259396 0.472166
0.5375 0.548594 0.483617 -20.7117 1.55338 20.7699 -0.0960192 616.632 1.12257 -0.0841925 0.177859 0.324209
0.55 0.5475 0.428613 -15.7904 1.57904 15.8691 0.11088 666.876 0.974226 -0.0974226 0.130816 0.238934
0.5625 0.546094 0.396581 -13.0518 1.63147 13.1534 0.179909 768.538 1.30336 -0.16292 0.106264 0.194589
0.575 0.544375 0.419876 -16.6793 2.50189 16.8659 0.132563 1025.26 2.07932 -0.311899 0.0979837 0.179993
0.5875 0.542344 0.501431 -26.2263 4.5896 26.6249 0.0553786 1451.79 3.06782 -0.536869 0.107177 0.197618
0.6 0.54 0.561434 -31.7322 6.34645 32.3607 0.010562 1779.57 3.49215 -0.698431 0.118038 0.21859
0.6125 0.537344 0.570521 -30.5863 6.88192 31.351 0.00154323 1926.8 2.9261 -0.658372 0.117562 0.218784
0.625 0.534375 0.606364 -29.0351 7.25876 29.9287 0.0380671 2103.16 1.42859 -0.357146 0.117504 0.21989
0.6375 0.531094 0.738976 -34.3688 9.45142 35.6447 0.109324 2465.35 -1.37024 0.376815 0.136072 0.256212
0.65 0.5275 0.885708 -44.2108 13.2633 46.1575 0.202411 2759.9 -5.7724 1.73172 0.185845 0.352313
0.6625 0.523594 0.894601 -50.4639 16.4008 53.0622 0.33296 2716.81 -9.40718 3.05733 0.234407 0.44769
0.675 0.519375 0.831348 -50.9634 17.8372 53.9947 0.455564 2499.02 -10.061 3.52134 0.247716 0.47695
0.6875 0.514844 0.784807 -47.7958 17.9234 51.046 0.501079 2315.63 -8.55664 3.20874 0.2322 0.45101
0.7 0.51 0.74636 -41.8274 16.731 45.0495 0.46334 2170.94 -6.19555 2.47822 0.193333 0.379085
0.7125 0.504844 0.701915 -34.2999 14.5775 37.2691 0.381316 2039.48 -4.25635 1.80895 0.143891 0.28502
0.725 0.499375 0.656676 -26.8858 12.0986 29.4825 0.303031 1933.59 -3.61759 1.62792 0.101954 0.204163
0.7375 0.493594 0.609742 -20.8666 9.91165 23.101 0.263084 1854.32 -4.36696 2.07431 0.0753889 0.152735
0.75 0.4875 0.555784 -15.8042 7.90208 17.6696 0.27133 1786.53 -5.83126 2.91563 0.0635028 0.130262
0.7625 0.481094 0.464413 -9.47386 4.97378 10.7001 0.310593 1650.04 -6.53474 3.43074 0.056926 0.118326
0.775 0.474375 0.343449 -0.312143 0.171679 0.35624 0.340801 1424.97 -5.5398 3.04689 0.0471218 0.0993346
0.7875 0.467344 0.210588 10.5071 -6.04157 12.1202 0.335075 1100.7 -3.44367 1.98011 0.0332943 0.0712415
0.8 0.46 0.147588 18.0841 -10.8505 21.0895 0.306216 1169.85 -1.52925 0.917552 0.0281908 0.0612843
0.8125 0.452344 0.0603499 -95.1939 59.4962 112.257 -0.0266566 12458.5 1.09192 -0.682453 0.0131641 0.029102
0.825 0.444375 0.078336 -31.4114 20.4174 37.464 -0.286497 8711.78 -10.6792 6.94146 0.0215974 0.0486018
0.8375 0.436094 0.34391 226.4 -152.82 273.15 -0.188629 24849 -67.3137 45.4367 0.0363246 0.0832955
0.85 0.4275 0.628841 349.417 -244.592 426.518 -0.172069 24588.8 -178.074 124.651 0.045555 0.106561
0.8625 0.418594 0.763891 391.002 -283.477 482.951 -0.123224 24191.1 -247.702 179.584 0.0333369 0.0796403
0.875 0.409375 0.686954 405.739 -304.304 507.174 -0.0844365 24787.3 -242.145 181.609 0.0182103 0.0444831
0.8875 0.399844 0.507578 417.718 -323.731 528.479 -0.0588474 24314.7 -200.155 155.12 0.0109387 0.0273573
0.9 0.39 0.487256 430.672 -344.537 551.529 -0.0371635 22844.7 -258.76 207.008 0.00232931 0.00597258
0.9125 0.379844 0.455273 317.475 -261.917 411.571 -0.00493532 24687.8 -203.029 167.499 0.00201286 0.00529919
0.925 0.369375 0.349395 315.328 -268.028 413.849 0.02473 19970.7 -117.449 99.8313 0.0144181 0.0390337
0.9375 0.358594 0.35461 352.654 -308.572 468.596 -0.0414106 12825.1 -115.201 100.801 0.0271596 0.0757393
0.95 0.3475 0.87473 181.371 -163.234 244.009 -0.657305 5892.15 -109.349 98.4142 -0.0289827 -0.0834035
0.9625 0.336094 1.07435 -11.5224 10.6582 15.696 1.56613 1753.29 13.8221 -12.7854 -1.04596 -3.11211
0.975 0.324375 0.325281 12.0554 -11.4526 16.6281 1.84919 1388.51 -1.18868 1.12924 -0.105157 -0.324185
0.9875 0.312344 0.61251 -21.3981 20.8631 29.8856 0.435965 1233.11 4.18407 -4.07947 0.0362474 0.11605
1 0.3 0.637713 -21.3981 21.3981 30.2614 0.435965 1233.11 4.35622 -4.35622 0.0348149 0.11605
0 0.3125 1 -0.00222647 -0.00217081 0.00310959 0 0.746269 0.1 0.0975 0.55 1.76
0.0125 0.324535 1.09584 -0.0019564 -0.119641 0.119657 -0.271814 0.621711 0.152697 0.0382856 0.570659 1.75839
0.025 0.336266 0.992787 -0.0288126 -0.151643 0.154356 -0.813734 0.571533 0.136494 0.0686775 0.599143 1.78175
0.0375 0.347691 0.856608 0.0107349 -0.099331 0.0999094 -1.09162 0.527241 0.102218 0.0843907 0.62427 1.79547
0.05 0.358813 0.793707 0.0380531 -0.0967228 0.103939 -1.01187 0.518157 0.0792695 0.080048 0.634791 1.76914
0.0625 0.369629 0.788148 0.0519677 -0.0843219 0.0990496 -0.751841 0.528427 0.0692087 0.0823786 0.637343 1.72428
0.075 0.380141 0.788856 0.0557946 -0.077379 0.0953968 -0.465351 0.544081 0.0644149 0.0855058 0.633653 1.66689
0.0875 0.390348 0.78262 0.0648675 -0.0500925 0.0819576 -0.144378 0.557257 0.0643369 0.0912172 0.631345 1.61739
0.1 0.40025 0.757618 0.0837998 -0.00986477 0.0843784 0.219309 0.563111 0.0676515 0.0970857 0.633414 1.58255
0.1125 0.409848 0.705336 0.125806 0.0528008 0.136437 0.631252 0.551332 0.0768446 0.100293 0.643271 1.56954
0.125 0.419141 0.637427 0.178263 0.115199 0.212246 1.00834 0.51829 0.0913553 0.0957972 0.661427 1.57805
0.1375 0.428129 0.592128 0.221416 0.142199 0.263146 1.12338 0.480999 0.108399 0.0840879 0.680144 1.58864
0.15 0.436813 0.597434 0.222394 0.121059 0.253208 0.875193 0.465136 0.121021 0.0754859 0.694827 1.59068
0.1625 0.445191 0.629742 0.202192 0.0989232 0.225095 0.471987 0.465201 0.122317 0.0736614 0.707795 1.58987
0.175 0.453266 0.649641 0.200172 0.0963406 0.22215 0.117168 0.468635 0.111308 0.070015 0.722387 1.59374
0.1875 0.461035 0.648347 0.223291 0.0988953 0.244211 -0.112258 0.470833 0.0952918 0.0625187 0.735013 1.59427
0.2 0.4685 0.639318 0.258687 0.102035 0.278082 -0.214693 0.470981 0.0816178 0.0560661 0.746918 1.59427
0.2125 0.47566 0.627731 0.293988 0.117535 0.316613 -0.201606 0.468906 0.0731068 0.0529274 0.756435 1.59028
0.225 0.482516 0.618225 0.341567 0.141238 0.369617 -0.088006 0.468201 0.0717783 0.0532082 0.767921 1.59149
0.2375 0.489066 0.604925 0.392912 0.169097 0.427754 0.102828 0.467222 0.0777599 0.0554474 0.7777 1.59017
0.25 0.495313 0.598346 0.266 0.132722 0.297273 0.358645 1.01473 0.10276 0.0301697 0.80768 1.63065
0.2625 0.501254 0.701946 -5.5261 -4.15408 6.91333 1.12705 80.3705 2.06344 -2.93975 1.0565 2.10772
0.275 0.506891 1.34478 -24.6697 -13.9492 28.3403 1.3233 618.461 31.0406 -18.8084 1.45377 2.86801
0.2875 0.512223 2.3684 -59.937 5.20313 60.1625 -0.689235 1126.68 114.487 -25.3266 1.13612 2.21802
0.3 0.51725 2.09589 -104.148 15.6738 105.321 -2.60521 1209.27 134.582 -17.0109 1.40353 2.71345
0.3125 0.521973 1.29404 -117.134 3.28898 117.181 -4.03542 1074.91 81.6063 -16.8179 1.81437 3.47598
0.325 0.526391 0.850419 -91.7454 -11.059 92.4095 -4.93454 925.805 37.1851 -6.32476 1.73247 3.29122
0.3375 0.530504 0.732618 -58.1942 -21.6368 62.0864 -4.41468 879.887 9.70299 7.1118 1.35342 2.55121
0.35 0.534313 0.844679 -36.1038 -15.5302 39.3023 -2.46852 953.465 -11.6312 14.5036 0.604584 1.13152
0.3625 0.537816 1.07211 -31.2917 0.725493 31.3001 -0.685722 960.09 -32.5973 10.7228 -0.29968 -0.557216
0.375 0.541016 1.10408 -42.848 3.27261 42.9728 -0.12293 812.571 -40.9075 5.11293 -0.334041 -0.617433
0.3875 0.54391 0.948874 -52.8334 0.123484 52.8336 0.83728 628.908 -34.1572 5.01051 0.25021 0.460022
0.4 0.5465 0.839982 -53.2908 -1.82977 53.3222 2.42742 570.574 -23.5256 3.63198 0.907824 1.66116
0.4125 0.548785 0.839356 -47.3329 -4.11469 47.5114 3.45576 595.371 -13.305 1.50418 1.39787 2.54721
0.425 0.550766 0.879244 -40.5079 -3.22132 40.6358 3.23947 637.049 -2.47476 -0.00911469 1.38187 2.509
0.4375 0.552441 0.929807 -36.4154 0.821009 36.4247 1.84866 663.514 7.70697 0.173553 0.810667 1.46743
0.45 0.553813 0.99007 -37.4656 3.67754 37.6457 0.367627 669.623 15.6957 0.248256 0.236563 0.427153
0.4625 0.554879 0.989109 -41.9186 4.09765 42.1184 -0.371184 647.589 19.7072 -1.09327 0.157431 0.283722
0.475 0.555641 0.876194 -44.9231 3.82708 45.0859 -0.770161 595.317 17.8708 -2.05369 0.351579 0.632746
0.4875 0.556098 0.741559 -43.2918 3.5284 43.4353 -1.09533 549.282 12.5016 -1.83852 0.471197 0.847327
0.5 0.55625 0.651685 -38.2069 3.42802 38.3604 -1.11045 538.604 7.38243 -1.18766 0.464306 0.834707
0.5125 0.556098 0.592617 -32.1955 3.66113 32.403 -0.817293 554.743 3.90667 -0.61788 0.37294 0.670638
0.525 0.555641 0.537064 -26.2955 4.01812 26.6007 -0.427333 582.062 1.959 -0.24141 0.262355 0.472166
0.5375 0.554879 0.478139 -20.7117 4.22962 21.1392 -0.0960192 616.632 1.10985 -0.024245 0.179897 0.324209
0.55 0.553813 0.423728 -15.7904 4.25322 16.3531 0.11088 666.876 0.963122 0.0677496 0.132324 0.238934
0.5625 0.552441 0.392024 -13.0518 4.32005 13.7482 0.179909 768.538 1.28839 0.049977 0.107499 0.194589
0.575 0.550766 0.415004 -16.6793 5.18931 17.4679 0.132563 1025.26 2.0552 -0.0843034 0.0991339 0.179993
0.5875 0.548785 0.495546 -26.2263 7.23414 27.2057 0.0553786 1451.79 3.03181 -0.370702 0.10845 0.197618
0.6 0.5465 0.554757 -31.7322 8.73263 32.9119 0.010562 1779.57 3.45062 -0.661195 0.119459 0.21859
0.6125 0.54391 0.563633 -30.5863 8.99201 31.8807 0.00154323 1926.8 2.89077 -0.747337 0.118999 0.218784
0.625 0.541016 0.598921 -29.0351 8.65029 30.2962 0.0380671 2103.16 1.41105 -0.669847 0.118964 0.21989
0.6375 0.537816 0.729739 -34.3688 9.89154 35.7639 0.109324 2465.35 -1.35311 -0.643215 0.137795 0.256212
0.65 0.534313 0.874416 -44.2108 14.9767 46.6787 0.202411 2759.9 -5.6988 -0.232221 0.188245 0.352313
0.6625 0.530504 0.882949 -50.4639 20.1425 54.3353 0.33296 2716.81 -9.28465 1.34455 0.237501 0.44769
0.675 0.526391 0.820268 -50.9634 22.3631 55.654 0.455564 2499.02 -9.92689 2.93172 0.251062 0.47695
0.6875 0.521973 0.774089 -47.7958 22.5848 52.8632 0.501079 2315.63 -8.43977 3.62584 0.235415 0.45101
0.7 0.51725 0.735899 -41.8274 21.4796 47.0203 0.46334 2170.94 -6.10872 3.40884 0.196082 0.379085
0.7125 0.512223 0.691803 -34.2999 19.4465 39.4291 0.381316 2039.48 -4.19503 2.67438 0.145994 0.28502
0.725 0.506891 0.64694 -26.8858 17.1955 31.9144 0.303031 1933.59 -3.56395 2.004 0.103488 0.204163
0.7375 0.501254 0.600424 -20.8666 15.1581 25.7912 0.263084 1854.32 -4.30023 1.88255 0.0765588 0.152735
0.75 0.495313 0.547018 -15.8042 13.1626 20.5676 0.27133 1786.53 -5.73928 2.46285 0.0645205 0.130262
0.7625 0.489066 0.456843 -9.47386 11.3255 14.7655 0.310593 1650.04 -6.42821 3.15031 0.0578694 0.118326
0.775 0.482516 0.337654 -0.312143 10.7584 10.7629 0.340801 1424.97 -5.44634 3.29264 0.0479305 0.0993346
0.7875 0.47566 0.206906 10.5071 11.0766 15.2673 0.335075 1100.7 -3.38347 2.838 0.0338868 0.0712415
0.8 0.4685 0.14491 18.0841 7.93539 19.7485 0.306216 1169.85 -1.50151 3.34362 0.0287117 0.0612843
0.8125 0.461035 0.0592122 -95.1939 -100.239 138.238 -0.0266566 12458.5 1.07134 7.35837 0.0134171 0.029102
0.825 0.453266 0.0767995 -31.4114 -97.896 102.812 -0.286497 8711.78 -10.4697 16.7325 0.0220295 0.0486018
0.8375 0.445191 0.336882 226.4 -169.491 282.815 -0.188629 24849 -65.9381 -19.784 0.0370824 0.0832955
0.85 0.436812 0.615435 349.417 -46.7619 352.532 -0.172069 24588.8 -174.277 -67.2719 0.0465473 0.106561
0.8625 0.428129 0.746877 391.002 -15.6601 391.316 -0.123224 24191.1 -242.185 -86.3843 0.0340963 0.0796403
0.875 0.419141 0.670948 405.739 -6.23241 405.787 -0.0844365 24787.3 -236.503 -82.2655 0.0186447 0.0444831
0.8875 0.409848 0.495189 417.718 30.9919 418.866 -0.0588474 24314.7 -195.27 -63.2466 0.0112123 0.0273573
0.9 0.40025 0.474778 430.672 33.2618 431.954 -0.0371635 22844.7 -252.133 -89.24 0.00239053 0.00597258
0.9125 0.390348 0.443022 317.475 -51.7477 321.664 -0.00493532 24687.8 -197.566 -180.292 0.00206853 0.00529919
0.925 0.380141 0.3395 315.328 -123.546 338.667 0.02473 19970.7 -114.122 -220.975 0.0148383 0.0390337
0.9375 0.369629 0.344024 352.654 -88.4675 363.581 -0.0414106 12825.1 -111.762 -207.37 0.0279954 0.0757393
0.95 0.358812 0.847152 181.371 -39.3015 185.58 -0.657305 5892.15 -105.902 -140.982 -0.0299262 -0.0834035
0.9625 0.347691 1.03851 -11.5224 30.1698 32.2952 1.56613 1753.29 13.361 -31.2669 -1.08205 -3.11211
0.975 0.336266 0.313779 12.0554 -18.1322 21.774 1.84919 1388.51 -1.14664 -15.0181 -0.109012 -0.324185
0.9875 0.324535 0.589501 -21.3981 -1.13325 21.4281 0.435965 1233.11 4.02689 -7.16359 0.0376622 0.11605
1 0.3125 0.612204 -21.3981 -1.13325 21.4281 0.435965 1233.11 4.18198 -7.43948 0.0362655 0.11605
0 0.325 1 0.155181 0.147422 0.214043 0 0.746269 0.1 0.095 0.55 1.69231
0.0125 0.336727 0.978612 0.153051 0.0713747 0.168875 0.0684759 0.683228 0.114481 0.0559312 0.564735 1.67713
0.025 0.348156 0.987768 0.0505385 -0.00178617 0.05057 -0.275979 0.64184 0.124468 0.037657 0.584818 1.67976
0.0375 0.359289 0.881504 0.0426796 -0.0119112 0.0443106 -0.90453 0.584934 0.101967 0.0387642 0.604464 1.68239
0.05 0.370125 0.754675 0.0335708 -0.0118052 0.035586 -1.23965 0.538268 0.0703547 0.0474681 0.621489 1.67913
0.0625 0.380664 0.705015 0.0441117 -0.0109978 0.0454621 -1.25509 0.520953 0.0507274 0.0554494 0.626119 1.64481
0.075 0.390906 0.704195 0.0333294 -0.0293508 0.0444108 -1.12534 0.528048 0.0399988 0.0631553 0.623559 1.59516
0.0875 0.400852 0.730217 0.0272961 -0.0423717 0.0504028 -0.912977 0.551964 0.0327562 0.0746759 0.62077 1.54863
0.1 0.4105 0.767921 0.0265038 -0.040119 0.0480831 -0.623545 0.587811 0.0281812 0.0900143 0.616577 1.50201
0.1125 0.419852 0.796322 0.0446945 -0.0143707 0.046948 -0.220975 0.623937 0.0288831 0.109455 0.615487 1.46596
0.125 0.428906 0.77829 0.0771817 0.0418981 0.0878206 0.305358 0.637655 0.0400247 0.128371 0.627835 1.4638
0.1375 0.437664 0.685964 0.139523 0.125636 0.187753 0.902784 0.594606 0.0664183 0.130919 0.658101 1.50367
0.15 0.446125 0.583037 0.207811 0.179702 0.274733 1.2853 0.509884 0.0982856 0.109366 0.692372 1.55197
0.1625 0.454289 0.537707 0.244341 0.15981 0.291962 1.14697 0.445623 0.123469 0.0787184 0.71578 1.5756
0.175 0.462156 0.545802 0.233377 0.116058 0.260642 0.618527 0.423774 0.132994 0.0573848 0.730354 1.58032
0.1875 0.469727 0.567916 0.216631 0.0995257 0.238399 0.0826705 0.424051 0.120749 0.0479113 0.741114 1.57776
0.2 0.477 0.578151 0.237447 0.107488 0.260643 -0.282758 0.431369 0.0946635 0.0413129 0.752224 1.57699
0.2125 0.483977 0.577883 0.275609 0.113441 0.298042 -0.473314 0.441097 0.0668903 0.0365549 0.758708 1.56766
0.225 0.490656 0.58099 0.321377 0.109712 0.339588 -0.517108 0.452973 0.0441829 0.0368107 0.768195 1.56565
0.2375 0.497039 0.585232 0.349204 0.109132 0.36586 -0.4356 0.464301 0.0275342 0.0420408 0.77489 1.55901
0.25 0.503125 0.59662 0.343093 0.0976335 0.356714 -0.249243 0.511461 0.0215683 0.0512248 0.795159 1.58044
0.2625 0.508914 0.667199 -2.46964 -0.723761 2.57351 0.233541 28.5742 0.367314 -0.482944 0.948286 1.86335
0.275 0.514406 1.13841 -23.0673 -8.26524 24.5033 1.31005 456.73 9.07434 -10.4369 1.94437 3.77984
0.2875 0.519602 2.43551 -38.2117 -1.17986 38.2299 1.05411 1264.25 49.1428 -36.1344 3.15508 6.07211
0.3 0.5245 3.47381 -49.7602 16.925 52.5599 -0.347932 1727.7 103.348 -46.2974 2.37763 4.53314
0.3125 0.529102 2.71038 -56.4926 13.8479 58.1651 -1.60907 1686.04 83.0133 -35.3755 1.32599 2.50612
0.325 0.533406 1.70436 -52.1231 0.425558 52.1249 -2.31511 1534.38 48.5235 -17.8659 0.915124 1.71562
0.3375 0.537414 0.99832 -43.4683 -9.08864 44.4083 -2.91447 1469.12 29.3636 0.424086 0.969006 1.80309
0.35 0.541125 0.733601 -35.2331 -9.782 36.5659 -3.49481 1502.77 13.1729 11.5445 1.27048 2.34785
0.3625 0.544539 1.04322 -22.742 0.693579 22.7526 -2.06534 1479.67 -9.00729 16.6794 0.99201 1.82174
0.375 0.547656 1.47307 -23.7394 7.08562 24.7743 -0.435952 1239.38 -32.9554 12.9915 0.017354 0.0316878
0.3875 0.550477 1.32655 -33.9061 4.00518 34.1418 0.282847 871.646 -31.2941 9.02977 -0.0384545 -0.0698567
