VARIABLES=
"X"
"Y"
"Psi"
"Rho"
"Vz"
"Vr"
"Vl"
"Calfl"
"Vphi"
"Energy"
"Hz"
"Hr"
"Hphi*r"
"Hphi"
ZONE 
 F=FEPOINT, ET=Quadrilateral, N=3321 E=3200
 0  0.3   0   1   0.339323   0.339323   0.479876   -6.27744e+066   0   0.746269  0  0  0.55  1.83333  
0.0125  0.312344   0   0.974985   0.34281   0.334736   0.479131   -6.27744e+066   0   0.734963  0  0  0.552284  1.76819  
0.025  0.324375   0   0.945778   0.348827   0.331703   0.48136   -6.27744e+066   0   0.721716  0  0  0.556838  1.71665  
0.0375  0.336094   0   0.917384   0.354293   0.327977   0.482796   -6.27744e+066   0   0.708547  0  0  0.562909  1.67486  
0.05  0.3475   0   0.889727   0.362865   0.32685   0.488367   -6.27744e+066   0   0.695402  0  0  0.568754  1.6367  
0.0625  0.358594   0   0.863704   0.373188   0.326824   0.496067   -6.27744e+066   0   0.682771  0  0  0.57432  1.60159  
0.075  0.369375   0   0.839543   0.384285   0.326916   0.504528   -6.27744e+066   0   0.670833  0  0  0.579588  1.56911  
0.0875  0.379844   0   0.817037   0.396837   0.327663   0.514629   -6.27744e+066   0   0.659535  0  0  0.584432  1.53861  
0.1  0.39   0   0.796063   0.410899   0.328992   0.526377   -6.27744e+066   0   0.648865  0  0  0.588847  1.50986  
0.1125  0.399844   0   0.776494   0.426554   0.330854   0.539827   -6.27744e+066   0   0.638772  0  0  0.592841  1.48268  
0.125  0.409375   0   0.75827   0.443838   0.333156   0.554964   -6.27744e+066   0   0.629134  0  0  0.596393  1.45684  
0.1375  0.418594   0   0.741304   0.46272   0.335754   0.5717   -6.27744e+066   0   0.619928  0  0  0.599454  1.43207  
0.15  0.4275   0   0.725487   0.483118   0.338469   0.589885   -6.27744e+066   0   0.611164  0  0  0.601972  1.40812  
0.1625  0.436094   0   0.710695   0.504994   0.341161   0.609434   -6.27744e+066   0   0.602895  0  0  0.603931  1.38487  
0.175  0.444375   0   0.696727   0.528352   0.343723   0.630318   -6.27744e+066   0   0.595091  0  0  0.60532  1.36218  
0.1875  0.452344   0   0.68343   0.553154   0.346019   0.652464   -6.27744e+066   0   0.587655  0  0  0.606149  1.34002  
0.2  0.46   0   0.6707   0.579363   0.347918   0.675802   -6.27744e+066   0   0.580502  0  0  0.606425  1.31832  
0.2125  0.467344   0   0.658466   0.606936   0.349291   0.700268   -6.27744e+066   0   0.57357  0  0  0.60614  1.29699  
0.225  0.474375   0   0.646664   0.635834   0.350013   0.725806   -6.27744e+066   0   0.566824  0  0  0.605277  1.27595  
0.2375  0.481094   0   0.635228   0.666008   0.34996   0.752355   -6.27744e+066   0   0.560238  0  0  0.603814  1.25509  
0.25  0.4875   0   0.624094   0.697395   0.349004   0.779848   -6.27744e+066   0   0.553782  0  0  0.601731  1.23432  
0.2625  0.493594   0   0.613205   0.729914   0.347015   0.808204   -6.27744e+066   0   0.547429  0  0  0.599012  1.21357  
0.275  0.499375   0   0.602509   0.763485   0.343872   0.837351   -6.27744e+066   0   0.541153  0  0  0.595648  1.19279  
0.2875  0.504844   0   0.591959   0.798032   0.339464   0.867232   -6.27744e+066   0   0.534928  0  0  0.591633  1.17191  
0.3  0.51   0   0.581494   0.833499   0.333696   0.897816   -6.27744e+066   0   0.528726  0  0  0.586964  1.15091  
0.3125  0.514844   0   0.571004   0.869802   0.326466   0.92905   -6.27744e+066   0   0.522491  0  0  0.581633  1.12973  
0.325  0.519375   0   0.560358   0.906993   0.317728   0.961034   -6.27744e+066   0   0.51616  0  0  0.575717  1.10848  
0.3375  0.523594   0   0.549954   0.944504   0.307232   0.993217   -6.27744e+066   0   0.509852  0  0  0.569198  1.0871  
0.35  0.5275   0   0.539794   0.982196   0.294914   1.02552   -6.27744e+066   0   0.503641  0  0  0.561906  1.06522  
0.3625  0.531094   0   0.529532   1.02033   0.28083   1.05827   -6.27744e+066   0   0.49738  0  0  0.553803  1.04276  
0.375  0.534375   0   0.519113   1.05875   0.264906   1.09138   -6.27744e+066   0   0.490996  0  0  0.544992  1.01987  
0.3875  0.537344   0   0.508593   1.09723   0.247074   1.12471   -6.27744e+066   0   0.484509  0  0  0.535576  0.99671  
0.4  0.54   0   0.498081   1.13551   0.227276   1.15804   -6.27744e+066   0   0.477978  0  0  0.525585  0.973305  
0.4125  0.542344   0   0.487499   1.17362   0.205532   1.19148   -6.27744e+066   0   0.471353  0  0  0.514993  0.949569  
0.425  0.544375   0   0.476733   1.21165   0.181868   1.22522   -6.27744e+066   0   0.464563  0  0  0.503831  0.925522  
0.4375  0.546094   0   0.465808   1.2494   0.156266   1.25914   -6.27744e+066   0   0.457613  0  0  0.492165  0.901246  
0.45  0.5475   0   0.454777   1.28674   0.128732   1.29316   -6.27744e+066   0   0.450533  0  0  0.480094  0.876883  
0.4625  0.548594   0   0.44404   1.32365   0.0993108   1.32737   -6.27744e+066   0   0.443598  0  0  0.467818  0.852759  
0.475  0.549375   0   0.433432   1.35975   0.068005   1.36145   -6.27744e+066   0   0.436702  0  0  0.455122  0.828436  
0.4875  0.549844   0   0.422188   1.39555   0.0348868   1.39599   -6.27744e+066   0   0.429338  0  0  0.441267  0.802531  
0.5  0.55   0   0.41032   1.42989   -0.000108884   1.42989   -6.27744e+066   0   0.421497  0  0  0.427339  0.776981  
0.5125  0.549844   0   0.398831   1.46272   -0.0367152   1.46319   -6.27744e+066   0   0.413838  0  0  0.413666  0.752333  
0.525  0.549375   0   0.387528   1.49447   -0.0749034   1.49635   -6.27744e+066   0   0.406236  0  0  0.399755  0.727655  
0.5375  0.548594   0   0.376295   1.52503   -0.114595   1.52933   -6.27744e+066   0   0.398611  0  0  0.385701  0.703072  
0.55  0.5475   0   0.36511   1.55434   -0.155694   1.56212   -6.27744e+066   0   0.390946  0  0  0.371492  0.678525  
0.5625  0.546094   0   0.354004   1.58229   -0.198089   1.59464   -6.27744e+066   0   0.38326  0  0  0.357211  0.65412  
0.575  0.544375   0   0.342994   1.60883   -0.24167   1.62688   -6.27744e+066   0   0.375563  0  0  0.342911  0.629916  
0.5875  0.542344   0   0.332095   1.63392   -0.286323   1.65881   -6.27744e+066   0   0.367866  0  0  0.32864  0.605962  
0.6  0.54   0   0.321331   1.65751   -0.331932   1.69042   -6.27744e+066   0   0.360182  0  0  0.314451  0.582316  
0.6125  0.537344   0   0.310719   1.6796   -0.378379   1.72169   -6.27744e+066   0   0.352525  0  0  0.300389  0.559027  
0.625  0.534375   0   0.300275   1.70016   -0.42555   1.75261   -6.27744e+066   0   0.344907  0  0  0.286498  0.536136  
0.6375  0.531094   0   0.290017   1.71921   -0.473331   1.78318   -6.27744e+066   0   0.33734  0  0  0.272814  0.513684  
0.65  0.5275   0   0.279959   1.73676   -0.52161   1.8134   -6.27744e+066   0   0.329836  0  0  0.259374  0.491704  
0.6625  0.523594   0   0.270114   1.75282   -0.570282   1.84326   -6.27744e+066   0   0.322406  0  0  0.246209  0.47023  
0.675  0.519375   0   0.260498   1.76741   -0.619242   1.87276   -6.27744e+066   0   0.315062  0  0  0.233349  0.449289  
0.6875  0.514844   0   0.25112   1.78058   -0.668393   1.9019   -6.27744e+066   0   0.307815  0  0  0.220819  0.428906  
0.7  0.51   0   0.241991   1.79235   -0.717642   1.93068   -6.27744e+066   0   0.300675  0  0  0.208642  0.409101  
0.7125  0.504844   0   0.23312   1.80277   -0.766902   1.95911   -6.27744e+066   0   0.293652  0  0  0.196835  0.389893  
0.725  0.499375   0   0.224516   1.81188   -0.816093   1.98719   -6.27744e+066   0   0.286756  0  0  0.185415  0.371293  
0.7375  0.493594   0   0.216183   1.81974   -0.865142   2.01492   -6.27744e+066   0   0.279995  0  0  0.174393  0.353313  
0.75  0.4875   0   0.208126   1.82639   -0.91398   2.04232   -6.27744e+066   0   0.273376  0  0  0.163779  0.335958  
0.7625  0.481094   0   0.20035   1.8319   -0.962546   2.06939   -6.27744e+066   0   0.266908  0  0  0.15358  0.319231  
0.775  0.474375   0   0.192857   1.83632   -1.01079   2.09613   -6.27744e+066   0   0.260597  0  0  0.143799  0.303134  
0.7875  0.467344   0   0.185647   1.83971   -1.05865   2.12256   -6.27744e+066   0   0.254449  0  0  0.134437  0.287662  
0.8  0.46   0   0.178725   1.84211   -1.1061   2.14868   -6.27744e+066   0   0.248471  0  0  0.125496  0.272817  
0.8125  0.452344   0   0.172107   1.84359   -1.15306   2.17448   -6.27744e+066   0   0.242685  0  0  0.116984  0.258618  
0.825  0.444375   0   0.165836   1.84427   -1.19908   2.1998   -6.27744e+066   0   0.237135  0  0  0.108923  0.245116  
0.8375  0.436094   0   0.159851   1.84423   -1.24485   2.22505   -6.27744e+066   0   0.231773  0  0  0.101265  0.23221  
0.85  0.4275   0   0.15412   1.84354   -1.29065   2.25043   -6.27744e+066   0   0.226577  0  0  0.0939851  0.219848  
0.8625  0.418594   0   0.148623   1.84222   -1.33634   2.27587   -6.27744e+066   0   0.221533  0  0  0.0870645  0.207993  
0.875  0.409375   0   0.143339   1.84021   -1.38102   2.30078   -6.27744e+066   0   0.216628  0  0  0.0804869  0.196609  
0.8875  0.399844   0   0.138302   1.83751   -1.42491   2.32525   -6.27744e+066   0   0.211898  0  0  0.0742645  0.185734  
0.9  0.39   0   0.133532   1.83416   -1.46815   2.34938   -6.27744e+066   0   0.20737  0  0  0.0683996  0.175384  
0.9125  0.379844   0   0.129044   1.83021   -1.51073   2.37318   -6.27744e+066   0   0.203065  0  0  0.0628878  0.165562  
0.925  0.369375   0   0.12484   1.82573   -1.55261   2.39664   -6.27744e+066   0   0.198993  0  0  0.0577177  0.156258  
0.9375  0.358594   0   0.120946   1.82083   -1.59367   2.41976   -6.27744e+066   0   0.195186  0  0  0.0528856  0.147481  
0.95  0.3475   0   0.117349   1.8156   -1.63432   2.44283   -6.27744e+066   0   0.19164  0  0  0.0483697  0.139193  
0.9625  0.336094   0   0.114024   1.81011   -1.67456   2.4659   -6.27744e+066   0   0.18833  0  0  0.044134  0.131315  
0.975  0.324375   0   0.110869   1.80399   -1.71413   2.4885   -6.27744e+066   0   0.185111  0  0  0.0400903  0.123592  
0.9875  0.312344   0   0.1074   1.79715   -1.75181   2.5097   -6.27744e+066   0   0.181094  0  0  0.0370623  0.118659  
1  0.3   0   0.104874   1.7973   -1.7973   2.54176   -6.27744e+066   0   0.176773  0  0  0.0361473  0.120491  
0  0.3125   0.00120473   1   0.308411   0.3007   0.430741   -6.27744e+066   0   0.746269  0  0  0.55  1.76  
0.0125  0.324535   0.00120473   0.969687   0.314009   0.292693   0.429268   -6.27744e+066   0   0.732379  0  0  0.55958  1.72425  
0.025  0.336266   0.00122063   0.936519   0.325971   0.289354   0.43587   -6.27744e+066   0   0.717084  0  0  0.565204  1.68083  
0.0375  0.347691   0.00122912   0.907191   0.335994   0.28835   0.442761   -6.27744e+066   0   0.703333  0  0  0.571279  1.64306  
0.05  0.358813   0.00123718   0.879978   0.346365   0.288569   0.450822   -6.27744e+066   0   0.690321  0  0  0.577065  1.60826  
0.0625  0.369629   0.00124515   0.854631   0.357191   0.289503   0.45978   -6.27744e+066   0   0.677968  0  0  0.582431  1.57572  
0.075  0.380141   0.00125682   0.831052   0.369541   0.290924   0.470316   -6.27744e+066   0   0.666277  0  0  0.58736  1.54511  
0.0875  0.390348   0.00127163   0.809173   0.383281   0.29276   0.482299   -6.27744e+066   0   0.655265  0  0  0.591898  1.51633  
0.1  0.40025   0.00128943   0.788788   0.398457   0.295016   0.495785   -6.27744e+066   0   0.644882  0  0  0.596019  1.48912  
0.1125  0.409848   0.00131022   0.769737   0.415156   0.297651   0.510833   -6.27744e+066   0   0.635071  0  0  0.599735  1.46331  
0.125  0.419141   0.00133395   0.752017   0.433365   0.300604   0.527416   -6.27744e+066   0   0.625647  0  0  0.603025  1.43872  
0.1375  0.428129   0.00136035   0.735529   0.453054   0.303786   0.545476   -6.27744e+066   0   0.616638  0  0  0.60582  1.41504  
0.15  0.436813   0.00138902   0.720179   0.474139   0.307068   0.564888   -6.27744e+066   0   0.608067  0  0  0.608078  1.39208  
0.1625  0.445191   0.00141973   0.705839   0.496618   0.310278   0.585578   -6.27744e+066   0   0.600028  0  0  0.609784  1.36971  
0.175  0.453266   0.00145211   0.692267   0.520525   0.313363   0.607571   -6.27744e+066   0   0.592464  0  0  0.610942  1.34787  
0.1875  0.461035   0.0014858   0.679317   0.545838   0.316199   0.63081   -6.27744e+066   0   0.58524  0  0  0.611564  1.3265  
0.2  0.4685   0.00152048   0.666898   0.572521   0.318651   0.655224   -6.27744e+066   0   0.578268  0  0  0.611654  1.30556  
0.2125  0.47566   0.00155587   0.654953   0.600525   0.320592   0.680742   -6.27744e+066   0   0.571492  0  0  0.611202  1.28496  
0.225  0.482516   0.00159176   0.643427   0.629808   0.321904   0.707305   -6.27744e+066   0   0.564895  0  0  0.610188  1.2646  
0.2375  0.489066   0.00162787   0.632254   0.660324   0.32248   0.734861   -6.27744e+066   0   0.558452  0  0  0.608588  1.24439  
0.25  0.495313   0.00166393   0.621371   0.692014   0.322208   0.763349   -6.27744e+066   0   0.552136  0  0  0.606383  1.22424  
0.2625  0.501254   0.00169965   0.610722   0.724803   0.320973   0.792693   -6.27744e+066   0   0.545918  0  0  0.603557  1.20409  
0.275  0.506891   0.00173476   0.600258   0.758616   0.318652   0.822823   -6.27744e+066   0   0.539774  0  0  0.600102  1.18389  
0.2875  0.512223   0.00176903   0.589931   0.793383   0.315129   0.853676   -6.27744e+066   0   0.53368  0  0  0.596014  1.16358  
0.3  0.51725   0.00180223   0.579683   0.82905   0.310302   0.885218   -6.27744e+066   0   0.527605  0  0  0.591286  1.14313  
0.3125  0.521973   0.00183389   0.569387   0.865556   0.304079   0.917416   -6.27744e+066   0   0.521485  0  0  0.585902  1.12248  
0.325  0.526391   0.00186378   0.55878   0.90319   0.296553   0.950629   -6.27744e+066   0   0.515208  0  0  0.579969  1.10178  
0.3375  0.530504   0.00189203   0.54867   0.940676   0.287342   0.983584   -6.27744e+066   0   0.509031  0  0  0.573466  1.08098  
0.35  0.534313   0.00191863   0.538902   0.978089   0.276379   1.01639   -6.27744e+066   0   0.503051  0  0  0.566171  1.05962  
0.3625  0.537816   0.00194315   0.528871   1.0162   0.263846   1.0499   -6.27744e+066   0   0.496959  0  0  0.558068  1.03766  
0.375  0.541016   0.00196523   0.518631   1.05472   0.249626   1.08386   -6.27744e+066   0   0.490694  0  0  0.549293  1.0153  
0.3875  0.54391   0.00198481   0.508283   1.09335   0.233629   1.11803   -6.27744e+066   0   0.484319  0  0  0.539948  0.992715  
0.4  0.5465   0.00200192   0.498013   1.13163   0.215726   1.15201   -6.27744e+066   0   0.47794  0  0  0.530046  0.969891  
0.4125  0.548785   0.00201643   0.487667   1.16971   0.195937   1.18601   -6.27744e+066   0   0.471466  0  0  0.519539  0.946707  
0.425  0.550766   0.00202818   0.477072   1.20785   0.174327   1.22036   -6.27744e+066   0   0.464788  0  0  0.508463  0.923194  
0.4375  0.552441   0.00203702   0.466305   1.24574   0.15088   1.25484   -6.27744e+066   0   0.457939  0  0  0.496885  0.899435  
0.45  0.553813   0.00204313   0.455376   1.2834   0.12553   1.28953   -6.27744e+066   0   0.450926  0  0  0.484895  0.875557  
0.4625  0.554879   0.00204764   0.444693   1.32032   0.0974338   1.32391   -6.27744e+066   0   0.44404  0  0  0.472518  0.851569  
0.475  0.555641   0.00205112   0.434246   1.35674   0.0677583   1.35843   -6.27744e+066   0   0.437257  0  0  0.459779  0.827475  
0.4875  0.556098   0.00204962   0.42347   1.39171   0.0389843   1.39226   -6.27744e+066   0   0.430214  0  0  0.446066  0.802136  
0.5  0.55625   0.0020428   0.411986   1.42624   0.00925535   1.42627   -6.27744e+066   0   0.422646  0  0  0.432972  0.778378  
0.5125  0.556098   0.00203313   0.400639   1.45918   -0.0252097   1.4594   -6.27744e+066   0   0.415102  0  0  0.419493  0.754351  
0.525  0.555641   0.00202134   0.389423   1.49094   -0.0611024   1.49219   -6.27744e+066   0   0.407578  0  0  0.40546  0.729717  
0.5375  0.554879   0.00200721   0.378295   1.52142   -0.0980347   1.52457   -6.27744e+066   0   0.400045  0  0  0.391425  0.705425  
0.55  0.553813   0.00199096   0.36727   1.55065   -0.135949   1.55659   -6.27744e+066   0   0.392512  0  0  0.377272  0.681227  
0.5625  0.552441   0.00197246   0.35634   1.57849   -0.174993   1.58816   -6.27744e+066   0   0.384972  0  0  0.363073  0.657216  
0.575  0.550766   0.00195174   0.345506   1.60493   -0.215091   1.61928   -6.27744e+066   0   0.377425  0  0  0.348858  0.633406  
0.5875  0.548785   0.00192887   0.334778   1.6299   -0.256138   1.64991   -6.27744e+066   0   0.369877  0  0  0.334665  0.609829  
0.6  0.5465   0.00190397   0.324178   1.65338   -0.298045   1.68003   -6.27744e+066   0   0.362342  0  0  0.320546  0.586544  
0.6125  0.54391   0.00187717   0.313722   1.67534   -0.340699   1.70963   -6.27744e+066   0   0.354833  0  0  0.306545  0.563595  
0.625  0.541016   0.00184859   0.303427   1.69578   -0.383985   1.73871   -6.27744e+066   0   0.347359  0  0  0.292701  0.541022  
0.6375  0.537816   0.00181838   0.293308   1.71469   -0.427793   1.76725   -6.27744e+066   0   0.339934  0  0  0.279053  0.518864  
0.65  0.534313   0.00178667   0.283381   1.7321   -0.472016   1.79526   -6.27744e+066   0   0.332569  0  0  0.265636  0.497154  
0.6625  0.530504   0.0017536   0.27366   1.74801   -0.51655   1.82273   -6.27744e+066   0   0.325275  0  0  0.25248  0.475926  
0.675  0.526391   0.00171931   0.264157   1.76246   -0.561296   1.84968   -6.27744e+066   0   0.318064  0  0  0.239616  0.455206  
0.6875  0.521973   0.00168394   0.254884   1.77547   -0.60616   1.8761   -6.27744e+066   0   0.310946  0  0  0.227068  0.435019  
0.7  0.51725   0.00164763   0.245852   1.78709   -0.651053   1.90199   -6.27744e+066   0   0.303932  0  0  0.214859  0.415388  
0.7125  0.512223   0.00161051   0.23707   1.79736   -0.695893   1.92737   -6.27744e+066   0   0.297032  0  0  0.203008  0.396328  
0.725  0.506891   0.00157271   0.228546   1.80632   -0.740601   1.95225   -6.27744e+066   0   0.290255  0  0  0.191531  0.377855  
0.7375  0.501254   0.00153435   0.220285   1.81403   -0.785109   1.97664   -6.27744e+066   0   0.283608  0  0  0.18044  0.359977  
0.75  0.495313   0.00149556   0.212292   1.82054   -0.829351   2.00055   -6.27744e+066   0   0.277101  0  0  0.169745  0.342704  
0.7625  0.489066   0.00145645   0.204573   1.82591   -0.87327   2.02399   -6.27744e+066   0   0.27074  0  0  0.159454  0.326038  
0.775  0.482516   0.00141714   0.197128   1.83019   -0.916813   2.04698   -6.27744e+066   0   0.264531  0  0  0.14957  0.30998  
0.7875  0.47566   0.00137771   0.189959   1.83344   -0.959936   2.06954   -6.27744e+066   0   0.258481  0  0  0.140096  0.29453  
0.8  0.4685   0.00133829   0.183068   1.83573   -1.00262   2.09168   -6.27744e+066   0   0.252595  0  0  0.131031  0.279682  
0.8125  0.461035   0.00129899   0.17646   1.83711   -1.04508   2.11357   -6.27744e+066   0   0.246883  0  0  0.122378  0.265442  
0.825  0.453266   0.00126016   0.170164   1.8377   -1.08832   2.13579   -6.27744e+066   0   0.241373  0  0  0.11415  0.251839  
0.8375  0.445191   0.00122183   0.164168   1.83758   -1.13029   2.15737   -6.27744e+066   0   0.236065  0  0  0.106334  0.238851  
0.85  0.436812   0.00118364   0.158417   1.83678   -1.17105   2.17833   -6.27744e+066   0   0.230914  0  0  0.0988896  0.226389  
0.8625  0.428129   0.00114561   0.152907   1.8353   -1.21052   2.19856   -6.27744e+066   0   0.225923  0  0  0.0918074  0.214439  
0.875  0.419141   0.00110787   0.147651   1.83313   -1.24903   2.21821   -6.27744e+066   0   0.22111  0  0  0.0850905  0.203012  
0.8875  0.409848   0.00107047   0.142646   1.8303   -1.28723   2.23763   -6.27744e+066   0   0.21648  0  0  0.0787292  0.192094  
0.9  0.40025   0.00103362   0.137912   1.82686   -1.32492   2.25673   -6.27744e+066   0   0.212055  0  0  0.0727243  0.181697  
0.9125  0.390348   0.000997358   0.133443   1.82286   -1.36227   2.27565   -6.27744e+066   0   0.207838  0  0  0.0670631  0.171803  
0.925  0.380141   0.000961754   0.12924   1.81837   -1.39927   2.29444   -6.27744e+066   0   0.203835  0  0  0.0617339  0.162398  
0.9375  0.369629   0.000926929   0.125311   1.81348   -1.43673   2.31363   -6.27744e+066   0   0.200058  0  0  0.0567278  0.153472  
0.95  0.358812   0.000892903   0.121652   1.80825   -1.4738   2.33278   -6.27744e+066   0   0.196509  0  0  0.0520298  0.145006  
