VARIABLES=
"X"
"Y"
"Rho"
"Vz"
"Vr"
"Vl"
"Vphi"
"Energy"
"Hz"
"Hr"
"Hphi*r"
"Hphi"
ZONE 
 F=FEPOINT, ET=Quadrilateral, N=3321 E=3200
 0 0.3 1 0.233492 0.233492 0.330207 0 0.746269 0.1 0.1 0.55 1.83333
0.0125 0.312344 0.906697 0.253458 0.247121 0.353991 -0.0281209 0.719309 0.0896755 0.0874336 0.56642 1.81345
0.025 0.324375 0.826396 0.274233 0.260521 0.378252 -0.0554836 0.695084 0.0806142 0.0765834 0.584249 1.80115
0.0375 0.336094 0.755804 0.299651 0.277177 0.408188 -0.0823724 0.673267 0.0724387 0.0670058 0.600982 1.78814
0.05 0.3475 0.693482 0.329683 0.296715 0.443543 -0.108759 0.653991 0.0650383 0.0585345 0.616743 1.7748
0.0625 0.358594 0.638189 0.364189 0.318665 0.483922 -0.13471 0.637215 0.0583424 0.0510496 0.631635 1.76142
0.075 0.369375 0.588943 0.402905 0.342469 0.528788 -0.160315 0.622832 0.0523014 0.0444562 0.645754 1.74823
0.0875 0.379844 0.545011 0.445492 0.367531 0.577531 -0.185597 0.610739 0.0468777 0.0386741 0.659184 1.73541
0.1 0.39 0.505913 0.491596 0.393277 0.629551 -0.210448 0.600898 0.0420429 0.0336343 0.672003 1.72308
0.1125 0.399844 0.471457 0.540693 0.419037 0.684062 -0.23457 0.593391 0.0377799 0.0292794 0.684232 1.71125
0.125 0.409375 0.441457 0.5922 0.44415 0.74025 -0.257524 0.588332 0.0340668 0.0255501 0.695899 1.69991
0.1375 0.418594 0.415805 0.645426 0.467934 0.797206 -0.278735 0.58589 0.0308818 0.0223893 0.707029 1.68906
0.15 0.4275 0.394493 0.6995 0.48965 0.853848 -0.297517 0.586293 0.028204 0.0197428 0.717622 1.67865
0.1625 0.436094 0.377606 0.75332 0.508491 0.908875 -0.31312 0.589784 0.0260127 0.0175586 0.727655 1.66858
0.175 0.444375 0.365308 0.805529 0.523594 0.960743 -0.324816 0.596566 0.0242867 0.0157864 0.73707 1.65867
0.1875 0.452344 0.357833 0.854539 0.534087 1.00771 -0.332002 0.606726 0.0230041 0.0143775 0.745768 1.64868
0.2 0.46 0.355455 0.898624 0.539175 1.04797 -0.334339 0.620144 0.0221415 0.0132849 0.753604 1.63827
0.2125 0.467344 0.358465 0.936109 0.538263 1.07983 -0.331864 0.636441 0.0216741 0.0124626 0.760382 1.62703
0.225 0.474375 0.367126 0.965611 0.531086 1.10202 -0.325048 0.654977 0.0215751 0.0118663 0.765867 1.61448
0.2375 0.481094 0.381636 0.986274 0.517794 1.11393 -0.314753 0.67492 0.0218153 0.011453 0.769798 1.6001
0.25 0.4875 0.402079 0.997903 0.498951 1.11569 -0.302075 0.695376 0.0223624 0.0111812 0.77191 1.58341
0.2625 0.493594 0.428384 1.00093 0.475442 1.10811 -0.288147 0.715515 0.0231818 0.0110113 0.771953 1.56394
0.275 0.499375 0.46029 0.996256 0.448315 1.09248 -0.273942 0.734666 0.024236 0.0109062 0.769705 1.54134
0.2875 0.504844 0.497321 0.985052 0.418647 1.07032 -0.260165 0.752359 0.0254866 0.0108318 0.764996 1.51531
0.3 0.51 0.538795 0.96858 0.387432 1.04319 -0.247217 0.768318 0.026895 0.010758 0.757724 1.48573
0.3125 0.514844 0.583847 0.948069 0.355526 1.01254 -0.235244 0.782423 0.0284258 0.0106597 0.747877 1.45263
0.325 0.519375 0.631472 0.924626 0.323619 0.979623 -0.224202 0.794667 0.0300488 0.0105171 0.73553 1.41618
0.3375 0.523594 0.680575 0.899182 0.292234 0.945478 -0.213937 0.805099 0.0317421 0.0103162 0.720842 1.37672
0.35 0.5275 0.730028 0.872495 0.261748 0.910911 -0.204249 0.813805 0.0334944 0.0100483 0.704035 1.33466
0.3625 0.531094 0.778738 0.845176 0.232423 0.876552 -0.194934 0.820883 0.0353077 0.00970962 0.68539 1.29052
0.375 0.534375 0.825707 0.817729 0.204432 0.842896 -0.185815 0.826441 0.0371991 0.00929977 0.665231 1.24488
0.3875 0.537344 0.870087 0.790576 0.17788 0.81034 -0.176745 0.830598 0.0392021 0.00882048 0.643913 1.19833
0.4 0.54 0.911214 0.764065 0.152813 0.779197 -0.167618 0.833479 0.0413666 0.00827332 0.621792 1.15147
0.4125 0.542344 0.948614 0.738479 0.129234 0.749702 -0.158358 0.83521 0.0437561 0.00765732 0.599213 1.10486
0.425 0.544375 0.981997 0.714032 0.107105 0.72202 -0.148913 0.835912 0.0464437 0.00696656 0.576482 1.05898
0.4375 0.546094 1.01123 0.690874 0.0863593 0.696251 -0.139253 0.835696 0.0495058 0.00618822 0.553859 1.01422
0.45 0.5475 1.03631 0.66909 0.066909 0.672427 -0.129358 0.834658 0.0530136 0.00530136 0.531551 0.970869
0.4625 0.548594 1.0573 0.648694 0.048652 0.650516 -0.119219 0.832865 0.057025 0.00427687 0.509704 0.92911
0.475 0.549375 1.07431 0.629634 0.0314817 0.63042 -0.108829 0.830358 0.0615754 0.00307877 0.48841 0.889029
0.4875 0.549844 1.08747 0.611796 0.0152949 0.611987 -0.0981889 0.82714 0.0666714 0.00166679 0.467714 0.850631
0.5 0.55 1.09689 0.595029 0 0.595029 -0.0873018 0.823186 0.0722869 0 0.447624 0.813862
0.5125 0.549844 1.1027 0.579171 -0.0144793 0.579352 -0.0761773 0.818451 0.0783647 -0.00195912 0.428132 0.778643
0.525 0.549375 1.10503 0.564099 -0.0282049 0.564804 -0.0648332 0.812888 0.0848245 -0.00424122 0.409227 0.744895
0.5375 0.548594 1.10411 0.549767 -0.0412325 0.551311 -0.0532975 0.806472 0.0915758 -0.00686819 0.390915 0.712576
0.55 0.5475 1.10023 0.536247 -0.0536247 0.538922 -0.0416109 0.799216 0.0985366 -0.00985366 0.373226 0.681691
0.5625 0.546094 1.0938 0.523737 -0.0654671 0.527813 -0.0298256 0.791185 0.105651 -0.0132063 0.356215 0.652296
0.575 0.544375 1.0853 0.512543 -0.0768814 0.518277 -0.0180033 0.782494 0.112903 -0.0169354 0.339951 0.62448
0.5875 0.542344 1.07528 0.503027 -0.0880297 0.510672 -0.00620845 0.77329 0.120321 -0.0210562 0.324504 0.598337
0.6 0.54 1.06422 0.49554 -0.0991079 0.505353 0.00549902 0.763726 0.127976 -0.0255951 0.309924 0.573933
0.6125 0.537344 1.05254 0.490345 -0.110328 0.502604 0.0170696 0.753929 0.135963 -0.0305917 0.296227 0.55128
0.625 0.534375 1.0405 0.487612 -0.121903 0.502618 0.0284784 0.743974 0.144393 -0.0360982 0.283398 0.530335
0.6375 0.531094 1.02822 0.487366 -0.134026 0.505458 0.0397227 0.733879 0.153378 -0.0421789 0.271389 0.511
0.65 0.5275 1.01567 0.48952 -0.146856 0.511074 0.0508181 0.723608 0.163019 -0.0489058 0.260125 0.493127
0.6625 0.523594 1.00274 0.493914 -0.160522 0.519344 0.061796 0.71308 0.173405 -0.0563566 0.249521 0.476554
0.675 0.519375 0.989243 0.500361 -0.175126 0.530123 0.072699 0.702187 0.184606 -0.064612 0.239492 0.461116
0.6875 0.514844 0.974961 0.508687 -0.190758 0.543278 0.0835784 0.690807 0.196681 -0.0737555 0.229963 0.446666
0.7 0.51 0.959672 0.518756 -0.207503 0.558718 0.0944921 0.678816 0.209683 -0.083873 0.220872 0.433083
0.7125 0.504844 0.943168 0.530495 -0.22546 0.576417 0.105506 0.666093 0.223658 -0.0950547 0.212172 0.420273
0.725 0.499375 0.925261 0.543899 -0.244754 0.596432 0.116695 0.652525 0.238662 -0.107398 0.203832 0.408175
0.7375 0.493594 0.905798 0.559047 -0.265547 0.61891 0.128148 0.638006 0.25476 -0.121011 0.195835 0.396754
0.75 0.4875 0.884649 0.576111 -0.288056 0.644112 0.139974 0.622436 0.272041 -0.13602 0.188178 0.386006
0.7625 0.481094 0.861719 0.595367 -0.312568 0.672428 0.152304 0.60572 0.290626 -0.152579 0.180869 0.375953
0.775 0.474375 0.836936 0.617215 -0.339468 0.70441 0.165304 0.587766 0.310682 -0.170875 0.173927 0.366645
0.7875 0.467344 0.810251 0.642206 -0.369269 0.740802 0.179176 0.568478 0.332433 -0.191149 0.167383 0.358158
0.8 0.46 0.781648 0.671059 -0.402636 0.782583 0.194163 0.547765 0.356167 -0.2137 0.161272 0.350591
0.8125 0.452344 0.751166 0.704656 -0.44041 0.830964 0.210515 0.525553 0.382207 -0.238879 0.15563 0.344053
0.825 0.444375 0.71885 0.744183 -0.483719 0.887576 0.228567 0.501752 0.411006 -0.267154 0.150498 0.338674
0.8375 0.436094 0.68488 0.790952 -0.533893 0.954278 0.248586 0.476335 0.443004 -0.299028 0.145899 0.334559
0.85 0.4275 0.649488 0.846402 -0.592481 1.03317 0.270779 0.449323 0.478464 -0.334925 0.141831 0.331769
0.8625 0.418594 0.612348 0.913565 -0.662334 1.1284 0.296164 0.4203 0.518303 -0.37577 0.138397 0.330623
0.875 0.409375 0.572998 0.996995 -0.747746 1.24624 0.326402 0.388586 0.563959 -0.42297 0.135777 0.33167
0.8875 0.399844 0.530792 1.10377 -0.855419 1.39644 0.364259 0.353121 0.61754 -0.478593 0.134284 0.335841
0.9 0.39 0.484701 1.24585 -0.996681 1.59547 0.415112 0.312081 0.682285 -0.545828 0.134549 0.344998
0.9125 0.379844 0.432771 1.53323 -1.26492 1.98767 0.478292 -1.9216 0.760469 -0.627387 0.135209 0.355961
0.925 0.369375 0.371378 2.26006e+008 -1.92105e+008 2.96619e+008 -3.68472e+007 -5.84922e+009 -7.9963e+006 6.79685e+006 -6.43212e+006 -1.74135e+007
0.9375 0.358594 0.277977 9.72814e+012 -8.51212e+012 1.29264e+013 -1.60977e+012 -2.60687e+014 -2.58239e+011 2.25959e+011 -1.88458e+011 -5.25548e+011
0.95 0.3475 -0.308369 -1.95596e+015 1.76036e+015 2.63147e+015 2.98071e+014 5.56931e+016 -2.52674e+013 2.27407e+013 -3.79255e+013 -1.09138e+014
0.9625 0.336094 -4.34778 -1.41029e+015 1.30452e+015 1.92112e+015 2.33221e+014 4.33309e+016 -4.23432e+014 3.91675e+014 -3.47562e+014 -1.03412e+015
0.975 0.324375 -18.339 -1.90781e+015 1.81242e+015 2.63146e+015 2.57714e+014 6.69157e+016 -2.18818e+015 2.07877e+015 -1.88996e+015 -5.82647e+015
0.9875 0.312344 -30.1821 -2.47688e+015 2.41496e+015 3.45933e+015 2.81687e+014 9.00896e+016 -3.73854e+015 3.64508e+015 -3.78478e+015 -1.21174e+016
1 0.3 -42.7224 -2.71163e+015 2.71163e+015 3.83483e+015 2.83606e+014 9.94041e+016 -5.37237e+015 5.37237e+015 -5.42924e+015 -1.80975e+016
0 0.3125 1 0.226644 0.220978 0.316542 0 0.746269 0.1 0.0975 0.55 1.76
0.0125 0.324535 0.912507 0.244139 0.227821 0.333926 -0.0280976 0.721061 0.089977 0.0862562 0.567721 1.74933
0.025 0.336266 0.837493 0.261957 0.236941 0.353218 -0.0551503 0.698689 0.0811904 0.0764192 0.585002 1.7397
0.0375 0.347691 0.771865 0.283292 0.248779 0.377022 -0.0813504 0.678854 0.0732824 0.0676726 0.601193 1.7291
0.05 0.358813 0.714171 0.308206 0.263361 0.405402 -0.106604 0.66165 0.0661327 0.0598617 0.616413 1.71792
0.0625 0.369629 0.663197 0.336594 0.280414 0.438096 -0.130898 0.647034 0.0596669 0.0528692 0.630762 1.70647
0.075 0.380141 0.617994 0.368203 0.29949 0.474624 -0.154256 0.634907 0.0538349 0.0466144 0.644334 1.69499
0.0875 0.390348 0.577854 0.402695 0.320057 0.514393 -0.176673 0.625168 0.0485994 0.041042 0.65721 1.68365
0.1 0.40025 0.542316 0.439695 0.341566 0.556775 -0.198056 0.61776 0.0439327 0.0361121 0.669457 1.6726
0.1125 0.409848 0.51115 0.478732 0.363395 0.601033 -0.218194 0.612698 0.0398142 0.0317934 0.681102 1.66184
0.125 0.419141 0.484153 0.519334 0.38497 0.64646 -0.236786 0.610007 0.0362202 0.0280492 0.692178 1.65142
0.1375 0.428129 0.461233 0.560974 0.405713 0.692311 -0.253447 0.609753 0.0331286 0.0248413 0.702703 1.64134
0.15 0.436813 0.442386 0.603059 0.425033 0.737789 -0.26774 0.61202 0.0305185 0.0221287 0.712676 1.63154
0.1625 0.445191 0.427689 0.644909 0.44232 0.78202 -0.279226 0.616891 0.0283693 0.019868 0.722068 1.62193
0.175 0.453266 0.417293 0.685745 0.456937 0.824037 -0.287516 0.624404 0.026661 0.0180141 0.730824 1.61235
0.1875 0.461035 0.411405 0.724682 0.468232 0.86279 -0.292339 0.63451 0.0253728 0.0165204 0.738847 1.60258
0.2 0.4685 0.410265 0.76076 0.475575 0.897178 -0.293609 0.647029 0.0244837 0.0153403 0.746 1.59231
0.2125 0.47566 0.414123 0.792997 0.478425 0.926139 -0.291473 0.661628 0.0239717 0.0144274 0.752103 1.58118
0.225 0.482516 0.423202 0.820484 0.47641 0.948768 -0.28632 0.677824 0.0238131 0.0137366 0.756943 1.56874
0.2375 0.489066 0.43766 0.8425 0.469403 0.96444 -0.278748 0.695026 0.0239827 0.0132237 0.760284 1.55456
0.25 0.495313 0.457552 0.858595 0.457563 0.972908 -0.269471 0.712608 0.0244532 0.0128468 0.761884 1.53819
0.2625 0.501254 0.482791 0.868632 0.44131 0.974308 -0.259214 0.729974 0.025195 0.0125658 0.761516 1.51922
0.275 0.506891 0.513115 0.872771 0.421264 0.969119 -0.248604 0.74662 0.0261769 0.0123439 0.758976 1.49732
0.2875 0.512223 0.548074 0.871419 0.398168 0.958076 -0.238105 0.762162 0.0273668 0.0121474 0.754108 1.47223
0.3 0.51725 0.587033 0.865174 0.37281 0.942079 -0.227996 0.776343 0.0287332 0.0119469 0.74682 1.44383
0.3125 0.521973 0.629196 0.854748 0.345955 0.922106 -0.218391 0.78902 0.0302478 0.0117176 0.737103 1.41215
0.325 0.526391 0.673642 0.840892 0.31829 0.899115 -0.209275 0.800135 0.0318874 0.0114395 0.725026 1.37735
0.3375 0.530504 0.719371 0.824325 0.290389 0.873978 -0.200554 0.809687 0.0336361 0.0110973 0.710733 1.33973
0.35 0.534313 0.765352 0.805706 0.262711 0.847455 -0.192096 0.81771 0.0354877 0.0106804 0.694431 1.29967
0.3625 0.537816 0.810588 0.785628 0.235606 0.820196 -0.183765 0.824262 0.0374473 0.0101822 0.67638 1.25764
0.375 0.541016 0.854172 0.764622 0.20934 0.792761 -0.175441 0.82942 0.0395329 0.0095989 0.656883 1.21417
0.3875 0.54391 0.895333 0.74316 0.184099 0.765623 -0.167029 0.833279 0.0417752 0.00892822 0.636271 1.16981
0.4 0.5465 0.933465 0.721652 0.160006 0.739178 -0.158461 0.835943 0.0442173 0.00816824 0.614878 1.12512
0.4125 0.548785 0.968132 0.700445 0.137126 0.713741 -0.149694 0.837522 0.0469115 0.00731579 0.593026 1.08062
0.425 0.550766 0.999067 0.679814 0.115478 0.689553 -0.140706 0.838124 0.0499146 0.00636528 0.571005 1.03675
0.4375 0.552441 1.02614 0.659969 0.0950421 0.666777 -0.131491 0.837848 0.0532826 0.00530796 0.54906 0.993878
0.45 0.553813 1.04934 0.641044 0.0757698 0.645507 -0.122051 0.836782 0.0570632 0.00413168 0.527386 0.952283
0.4625 0.554879 1.06873 0.623104 0.0575929 0.62576 -0.112396 0.834986 0.0612889 0.00282152 0.506126 0.912137
0.475 0.555641 1.08438 0.606139 0.0404315 0.607486 -0.102539 0.832493 0.0659702 0.00136102 0.485368 0.873528
0.4875 0.556098 1.0964 0.590076 0.0242027 0.590572 -0.0924951 0.829305 0.0710912 -0.000266089 0.465156 0.836464
0.5 0.55625 1.10488 0.574797 0.0088272 0.574865 -0.0822799 0.825395 0.076608 -0.00207399 0.4455 0.8009
0.5125 0.556098 1.10993 0.560174 -0.00576677 0.560203 -0.0719126 0.820716 0.0824522 -0.00407334 0.426394 0.766761
0.525 0.555641 1.11167 0.546107 -0.019644 0.54646 -0.0614174 0.815224 0.0885385 -0.00627071 0.407828 0.733978
0.5375 0.554879 1.11029 0.53257 -0.0328676 0.533583 -0.0508261 0.808894 0.0947785 -0.00866927 0.389808 0.70251
0.55 0.553813 1.10608 0.519644 -0.045509 0.521633 -0.0401804 0.801739 0.101096 -0.0112705 0.372364 0.672365
0.5625 0.552441 1.09941 0.507528 -0.0576573 0.510792 -0.029533 0.793827 0.107443 -0.0140769 0.355549 0.643597
0.575 0.550766 1.09076 0.496521 -0.0694278 0.501352 -0.0189454 0.785276 0.113809 -0.017094 0.339434 0.616295
0.5875 0.548785 1.08065 0.486976 -0.0809621 0.49366 -0.00848267 0.776239 0.120223 -0.0203315 0.324087 0.590554
0.6 0.5465 1.06958 0.479227 -0.0924219 0.488058 0.00179299 0.766875 0.126747 -0.023804 0.309561 0.566443
0.6125 0.54391 1.05796 0.473538 -0.103976 0.484818 0.0118305 0.757322 0.133466 -0.0275289 0.295877 0.543982
0.625 0.541016 1.04607 0.470057 -0.115788 0.484108 0.0215994 0.74767 0.140471 -0.0315266 0.283025 0.523136
0.6375 0.537816 1.03404 0.4688 -0.127998 0.485959 0.0310872 0.737954 0.147849 -0.0358167 0.270955 0.503807
0.65 0.534313 1.0219 0.469663 -0.140717 0.49029 0.0402985 0.728155 0.155675 -0.0404169 0.259597 0.485852
0.6625 0.530504 1.00954 0.47247 -0.154025 0.496943 0.049251 0.718214 0.164005 -0.0453417 0.248865 0.469111
0.675 0.526391 0.996818 0.477012 -0.167977 0.505724 0.057972 0.708045 0.172881 -0.0506016 0.238676 0.45342
0.6875 0.521973 0.983552 0.483079 -0.182609 0.516441 0.0664941 0.69755 0.18233 -0.0562034 0.228954 0.438632
0.7 0.51725 0.969557 0.490493 -0.197938 0.528926 0.0748537 0.686635 0.192373 -0.0621504 0.219635 0.42462
0.7125 0.512223 0.954669 0.499119 -0.213975 0.543052 0.0830896 0.675211 0.203027 -0.0684433 0.210671 0.411289
0.725 0.506891 0.938751 0.508874 -0.230727 0.558737 0.0912441 0.663203 0.214313 -0.0750812 0.20203 0.398568
0.7375 0.501254 0.9217 0.519732 -0.248197 0.575954 0.0993635 0.650548 0.22626 -0.0820625 0.193692 0.386415
0.75 0.495313 0.903447 0.531727 -0.266391 0.594725 0.107501 0.637198 0.238914 -0.089386 0.18565 0.374814
0.7625 0.489066 0.883956 0.544952 -0.285321 0.615127 0.115716 0.623121 0.252344 -0.097051 0.177908 0.363771
0.775 0.482516 0.863226 0.559566 -0.305002 0.637292 0.124081 0.608293 0.266648 -0.105057 0.170479 0.353314
0.7875 0.47566 0.841281 0.575799 -0.325456 0.661413 0.132675 0.592707 0.281961 -0.113404 0.163384 0.343489
0.8 0.4685 0.818174 0.593957 -0.346713 0.687747 0.14159 0.576368 0.298463 -0.122094 0.156649 0.334363
0.8125 0.461035 0.793986 0.61443 -0.368808 0.71662 0.150924 0.5593 0.316381 -0.131156 0.150304 0.326014
0.825 0.453266 0.768838 0.637684 -0.391744 0.748401 0.160771 0.541553 0.336 -0.140559 0.144379 0.31853
0.8375 0.445191 0.742928 0.664202 -0.415447 0.783429 0.17117 0.523229 0.357609 -0.150209 0.138894 0.311987
0.85 0.436812 0.716471 0.694474 -0.439752 0.821995 0.182116 0.504467 0.381428 -0.159929 0.133859 0.306444
0.8625 0.428129 0.689415 0.729525 -0.46464 0.864926 0.193895 0.485262 0.408024 -0.169614 0.129338 0.302101
0.875 0.419141 0.661654 0.770743 -0.489972 0.913301 0.206955 0.465574 0.438252 -0.179069 0.125446 0.299293
0.8875 0.409848 0.632969 0.820127 -0.515356 0.968607 0.22206 0.44532 0.473394 -0.187947 0.122378 0.298595
0.9 0.40025 0.602923 0.880733 -0.539852 1.03302 0.240712 0.424318 0.515458 -0.19558 0.120538 0.301157
0.9125 0.390348 0.570646 0.957638 -0.561 1.10986 0.266924 0.402197 0.567977 -0.200402 0.121046 0.310098
0.925 0.380141 0.534592 -23259.8 386.809 23263 -1205.29 1074.09 0.234663 -5844.59 -289.502 -761.565
0.9375 0.369629 0.4942 -1.02177e+010 2.60908e+009 1.05455e+010 -9.09248e+009 1.07238e+010 1.37788e+006 -4.17583e+010 -1.9086e+009 -5.16355e+009
0.95 0.358812 0.508684 1.5519e+014 -1.65589e+014 2.26944e+014 -1.79248e+013 -4.57004e+015 7.59427e+012 2.13818e+012 -5.83185e+012 -1.62532e+013
0.9625 0.347691 0.335037 -7.68382e+014 -1.68428e+015 1.85128e+015 1.69344e+014 2.20958e+016 9.6649e+013 2.66681e+013 1.20708e+013 3.4717e+013
0.975 0.336266 -2.78182 -9.07507e+014 1.90055e+015 2.1061e+015 -3.8665e+013 3.08017e+016 4.03003e+014 3.82016e+014 -1.70333e+014 -5.06542e+014
0.9875 0.324535 -6.57879 -9.71646e+014 2.52503e+015 2.70553e+015 -1.61158e+014 3.49802e+016 1.41183e+015 7.7048e+014 -4.09659e+014 -1.26229e+015
1 0.3125 -10.6709 -9.89639e+014 2.70021e+015 2.87585e+015 -1.9552e+014 3.61524e+016 2.49875e+015 1.18924e+015 -6.30639e+014 -2.01805e+015
0 0.325 1 0.220324 0.209308 0.303895 0 0.746269 0.1 0.095 0.55 1.69231
0.0125 0.336727 0.917896 0.2356 0.214562 0.31866 -0.0280763 0.722667 0.0902567 0.0846147 0.567458 1.68522
0.025 0.348156 0.847831 0.250809 0.22043 0.333908 -0.0548477 0.701963 0.0817272 0.0755712 0.584294 1.67825
0.0375 0.359289 0.786889 0.268594 0.228281 0.352498 -0.0804321 0.683873 0.0740716 0.0675714 0.600034 1.67006
0.05 0.370125 0.733595 0.289145 0.238654 0.374914 -0.104692 0.668447 0.0671603 0.0604257 0.614795 1.66105
0.0625 0.380664 0.686756 0.312438 0.251559 0.401123 -0.127562 0.65563 0.0609147 0.0539894 0.628676 1.65152
0.075 0.390906 0.645445 0.338284 0.266707 0.430777 -0.149032 0.645319 0.0552839 0.0481703 0.641768 1.64174
0.0875 0.400852 0.608975 0.3664 0.283652 0.463365 -0.169105 0.637404 0.0502309 0.0429162 0.654148 1.6319
0.1 0.4105 0.576902 0.396452 0.301872 0.498298 -0.187732 0.631809 0.045728 0.0382004 0.665876 1.62211
0.1125 0.419852 0.548951 0.428055 0.320792 0.534919 -0.2048 0.628489 0.0417516 0.0340073 0.676984 1.61244
0.125 0.428906 0.524906 0.460843 0.339875 0.572618 -0.220139 0.627407 0.0382755 0.0303194 0.68751 1.60294
0.1375 0.437664 0.504682 0.494426 0.358579 0.610767 -0.233519 0.628556 0.0352776 0.0271173 0.697467 1.59361
0.15 0.446125 0.488279 0.528394 0.376366 0.648731 -0.244688 0.631939 0.0327363 0.0243755 0.706851 1.58442
0.1625 0.454289 0.475766 0.562312 0.392703 0.685865 -0.253403 0.637545 0.0306316 0.0220623 0.715633 1.57528
0.175 0.462156 0.467278 0.595703 0.407042 0.721488 -0.259477 0.64533 0.0289439 0.0201406 0.723754 1.56604
0.1875 0.469727 0.462995 0.628035 0.418833 0.754883 -0.262819 0.655189 0.0276539 0.018569 0.731124 1.55649
0.2 0.477 0.463122 0.658718 0.42753 0.785297 -0.263462 0.666929 0.0267425 0.0173038 0.737614 1.54636
0.2125 0.483977 0.467869 0.687117 0.432637 0.811975 -0.26159 0.680263 0.0261903 0.0163 0.743061 1.53533
0.225 0.490656 0.477417 0.712587 0.43376 0.834223 -0.257527 0.69481 0.0259768 0.0155123 0.747274 1.52301
0.2375 0.497039 0.491887 0.734529 0.43067 0.851475 -0.251709 0.710126 0.0260806 0.0148965 0.750043 1.50902
0.25 0.503125 0.511303 0.752448 0.423335 0.86336 -0.244628 0.725738 0.026479 0.01441 0.751152 1.49297
