VARIABLES=
"X"
"Y"
"Rho"
"Vz"
"Vr"
"Vl"
"Vphi"
"Energy"
"Hz"
"Hr"
"Hphi*r"
"Hphi"
ZONE 
 F=FEPOINT, ET=Quadrilateral, N=3321 E=3200
 0 0.3 1 0.959779 0.959779 1.35733 0 0.746269 0.1 0.1 0.55 1.83333
0.0125 0.312344 1.00367 0.918478 0.895516 1.28279 -0.00381436 0.722662 0.0982171 0.0957617 0.545808 1.74746
0.025 0.324375 0.958226 0.933721 0.887035 1.28789 -0.00809466 0.696458 0.0923 0.087685 0.558569 1.72199
0.0375 0.336094 0.913467 0.955106 0.883473 1.30106 -0.011855 0.671028 0.0870142 0.0804882 0.569497 1.69446
0.05 0.3475 0.871189 0.979391 0.881452 1.31764 -0.0149448 0.647089 0.0823773 0.0741396 0.579246 1.66689
0.0625 0.358594 0.83172 1.0054 0.879729 1.33595 -0.0174184 0.62475 0.0783044 0.0685163 0.587965 1.63964
0.075 0.369375 0.795026 1.03253 0.877654 1.35514 -0.0193786 0.603968 0.0747059 0.0635 0.595715 1.61277
0.0875 0.379844 0.760966 1.06038 0.874818 1.37467 -0.0209295 0.584658 0.0715051 0.0589917 0.602554 1.58632
0.1 0.39 0.729365 1.08869 0.870949 1.3942 -0.0221626 0.56672 0.0686389 0.0549111 0.608538 1.56035
0.1125 0.399844 0.700038 1.11725 0.865869 1.4135 -0.0231534 0.550055 0.0660561 0.0511935 0.61372 1.5349
0.125 0.409375 0.672801 1.14595 0.859463 1.43244 -0.0239621 0.534562 0.0637151 0.0477863 0.618151 1.50999
0.1375 0.418594 0.647477 1.1747 0.851659 1.45095 -0.0246353 0.520149 0.0615822 0.0446471 0.621874 1.48563
0.15 0.4275 0.623902 1.20345 0.842416 1.469 -0.0252083 0.506726 0.0596297 0.0417408 0.624925 1.46181
0.1625 0.436094 0.601923 1.23216 0.83171 1.4866 -0.0257072 0.49421 0.0578351 0.0390387 0.627338 1.43854
0.175 0.444375 0.581402 1.26082 0.819532 1.50376 -0.0261511 0.482527 0.0561802 0.0365171 0.629142 1.41579
0.1875 0.452344 0.562212 1.28941 0.805884 1.52054 -0.0265539 0.471606 0.0546494 0.0341559 0.630361 1.39354
0.2 0.46 0.544237 1.31795 0.790771 1.53698 -0.0269255 0.461382 0.0532301 0.0319381 0.631016 1.37177
0.2125 0.467344 0.527374 1.34644 0.774202 1.55315 -0.0272729 0.451797 0.0519115 0.0298491 0.631127 1.35046
0.225 0.474375 0.511526 1.37489 0.756188 1.56912 -0.0276006 0.442795 0.0506844 0.0278764 0.630708 1.32956
0.2375 0.481094 0.496608 1.40331 0.73674 1.58495 -0.0279117 0.434327 0.049541 0.026009 0.629774 1.30905
0.25 0.4875 0.482543 1.43173 0.715866 1.60072 -0.0282079 0.426347 0.0484746 0.0242373 0.628336 1.28889
0.2625 0.493594 0.469259 1.46016 0.693575 1.61651 -0.0284898 0.418812 0.0474795 0.0225528 0.626404 1.26907
0.275 0.499375 0.456691 1.48861 0.669874 1.63239 -0.0287572 0.411682 0.0465508 0.0209478 0.623988 1.24954
0.2875 0.504844 0.444781 1.5171 0.644767 1.64843 -0.0290092 0.404923 0.045684 0.0194157 0.621095 1.23027
0.3 0.51 0.433475 1.54564 0.618255 1.6647 -0.0292441 0.398499 0.0448758 0.0179503 0.617733 1.21124
0.3125 0.514844 0.422725 1.57424 0.590339 1.68129 -0.0294595 0.392381 0.0441229 0.0165461 0.613908 1.19242
0.325 0.519375 0.412485 1.6029 0.561017 1.69825 -0.029652 0.386539 0.043423 0.0151981 0.609627 1.17377
0.3375 0.523594 0.402717 1.63164 0.530283 1.71565 -0.0298176 0.380948 0.0427741 0.0139016 0.604896 1.15528
0.35 0.5275 0.393382 1.66044 0.498133 1.73356 -0.0299514 0.375583 0.0421749 0.0126525 0.599721 1.13691
0.3625 0.531094 0.384448 1.68931 0.464561 1.75202 -0.0300475 0.370423 0.0416246 0.0114468 0.594111 1.11866
0.375 0.534375 0.375883 1.71823 0.429557 1.77111 -0.0300989 0.365448 0.0411227 0.0102807 0.588072 1.10049
0.3875 0.537344 0.367662 1.74718 0.393116 1.79086 -0.0300976 0.360638 0.0406696 0.00915067 0.581613 1.08239
0.4 0.54 0.359757 1.77615 0.35523 1.81132 -0.0300343 0.355978 0.0402662 0.00805325 0.574743 1.06434
0.4125 0.542344 0.352148 1.8051 0.315893 1.83254 -0.0298984 0.351454 0.039914 0.00698495 0.567474 1.04634
0.425 0.544375 0.344814 1.83401 0.275102 1.85453 -0.029678 0.347051 0.039615 0.00594226 0.559817 1.02837
0.4375 0.546094 0.337738 1.86283 0.232854 1.87733 -0.0293598 0.34276 0.0393722 0.00492153 0.551785 1.01042
0.45 0.5475 0.330904 1.89152 0.189152 1.90095 -0.0289291 0.338571 0.0391891 0.00391891 0.543394 0.9925
0.4625 0.548594 0.324299 1.92002 0.144001 1.92541 -0.0283694 0.334477 0.0390701 0.00293026 0.534659 0.974599
0.475 0.549375 0.317911 1.94827 0.0974133 1.9507 -0.0276629 0.33047 0.0390205 0.00195103 0.525599 0.956722
0.4875 0.549844 0.311732 1.9762 0.049405 1.97682 -0.0267901 0.326547 0.0390465 0.000976162 0.516234 0.938874
0.5 0.55 0.305753 2.00374 0 2.00374 -0.0257297 0.322706 0.0391553 0 0.506585 0.921064
0.5125 0.549844 0.29997 2.03081 -0.0507703 2.03145 -0.0244592 0.318945 0.0393553 -0.000983882 0.496676 0.903304
0.525 0.549375 0.294379 2.05732 -0.102866 2.05989 -0.0229543 0.315264 0.0396562 -0.00198281 0.486531 0.885608
0.5375 0.548594 0.288979 2.08317 -0.156238 2.08902 -0.0211894 0.311667 0.0400692 -0.00300519 0.476175 0.867992
0.55 0.5475 0.283769 2.10827 -0.210827 2.11878 -0.0191381 0.308156 0.0406069 -0.00406069 0.465637 0.850478
0.5625 0.546094 0.278751 2.1325 -0.266562 2.1491 -0.016773 0.304736 0.0412835 -0.00516044 0.454944 0.833087
0.575 0.544375 0.27393 2.15576 -0.323365 2.17988 -0.014067 0.301416 0.0421154 -0.00631732 0.444125 0.815844
0.5875 0.542344 0.269311 2.17795 -0.381141 2.21105 -0.0109936 0.298202 0.0431206 -0.00754611 0.433211 0.798775
0.6 0.54 0.264901 2.19895 -0.43979 2.2425 -0.00752811 0.295106 0.0443192 -0.00886384 0.42223 0.781907
0.6125 0.537344 0.260709 2.21866 -0.499197 2.27412 -0.00364869 0.292138 0.0457331 -0.0102899 0.411213 0.76527
0.625 0.534375 0.256747 2.23697 -0.559242 2.30582 0.000662075 0.289311 0.047386 -0.0118465 0.40019 0.748893
0.6375 0.531094 0.253024 2.2538 -0.619795 2.33747 0.00541576 0.286638 0.0493032 -0.0135584 0.389189 0.732807
0.65 0.5275 0.249556 2.26906 -0.680719 2.36897 0.0106165 0.284133 0.0515107 -0.0154532 0.37824 0.717042
0.6625 0.523594 0.246356 2.2827 -0.741877 2.40023 0.0162594 0.281811 0.0540351 -0.0175614 0.367368 0.701628
0.675 0.519375 0.243439 2.29465 -0.803128 2.43114 0.0223293 0.279688 0.0569024 -0.0199158 0.356601 0.686596
0.6875 0.514844 0.240821 2.30489 -0.864335 2.46163 0.0288001 0.277777 0.0601376 -0.0225516 0.345962 0.671974
0.7 0.51 0.238519 2.31341 -0.925365 2.49162 0.0356337 0.276093 0.0637634 -0.0255054 0.335472 0.657789
0.7125 0.504844 0.23655 2.32022 -0.986095 2.52108 0.042781 0.274649 0.0677996 -0.0288148 0.325153 0.644066
0.725 0.499375 0.234931 2.32536 -1.04641 2.54996 0.0501826 0.273457 0.0722626 -0.0325182 0.31502 0.630828
0.7375 0.493594 0.233678 2.32888 -1.10622 2.57825 0.0577701 0.272529 0.0771649 -0.0366533 0.305088 0.618095
0.75 0.4875 0.232811 2.33085 -1.16543 2.60597 0.0654689 0.271873 0.082515 -0.0412575 0.295368 0.605883
0.7625 0.481094 0.232345 2.33137 -1.22397 2.63314 0.0732004 0.271499 0.0883181 -0.046367 0.285868 0.594205
0.775 0.474375 0.232299 2.33055 -1.2818 2.65979 0.0808854 0.271412 0.0945765 -0.0520171 0.276594 0.583069
0.7875 0.467344 0.232689 2.3285 -1.33889 2.68599 0.088446 0.271618 0.101291 -0.0582421 0.267545 0.57248
0.8 0.46 0.233535 2.32536 -1.39522 2.71181 0.095809 0.272122 0.10846 -0.0650758 0.258721 0.562437
0.8125 0.452344 0.234855 2.32125 -1.45078 2.73733 0.102908 0.272929 0.116084 -0.0725523 0.250117 0.552936
0.825 0.444375 0.236668 2.3163 -1.5056 2.76262 0.109683 0.274041 0.124164 -0.0807063 0.241726 0.543969
0.8375 0.436094 0.238996 2.31066 -1.5597 2.78779 0.116084 0.275464 0.132703 -0.0895744 0.233537 0.535521
0.85 0.4275 0.241861 2.30445 -1.61311 2.81294 0.122072 0.277202 0.141708 -0.0991957 0.22554 0.527578
0.8625 0.418594 0.245289 2.29779 -1.6659 2.83815 0.127613 0.27926 0.151191 -0.109613 0.217719 0.520119
0.875 0.409375 0.249308 2.29082 -1.71812 2.86353 0.132685 0.281645 0.161167 -0.120875 0.210059 0.513121
0.8875 0.399844 0.253948 2.28366 -1.76984 2.88919 0.137272 0.284364 0.171659 -0.133036 0.202543 0.506556
0.9 0.39 0.259245 2.27643 -1.82114 2.91525 0.141362 0.287427 0.182694 -0.146155 0.195152 0.500391
0.9125 0.379844 0.265233 2.26925 -1.87213 2.94183 0.144945 0.29084 0.194308 -0.160304 0.187865 0.494584
0.925 0.369375 0.271951 2.26228 -1.92294 2.96911 0.148008 0.294609 0.206542 -0.17556 0.180655 0.489083
0.9375 0.358594 0.279432 2.25568 -1.97372 2.99728 0.150528 0.298736 0.21944 -0.19201 0.173494 0.483817
0.95 0.3475 0.287703 2.24967 -2.0247 3.02662 0.15246 0.3032 0.233042 -0.209738 0.166346 0.478694
0.9625 0.336094 0.296768 2.24448 -2.07614 3.05746 0.153733 0.307931 0.247354 -0.228802 0.159176 0.473606
0.975 0.324375 0.306604 2.2403 -2.12829 3.09008 0.154269 0.312676 0.262226 -0.249115 0.151969 0.468498
0.9875 0.312344 0.317216 2.23702 -2.18109 3.12433 0.154217 0.316522 0.276859 -0.269938 0.144858 0.463777
1 0.3 0.330268 2.23702 -2.23702 3.16362 0.154217 0.316522 0.288251 -0.288251 0.139133 0.463777
0 0.3125 1 0.921388 0.898353 1.28685 0 0.746269 0.1 0.0975 0.55 1.76
0.0125 0.324535 0.965966 0.918478 0.867427 1.26334 -0.00381436 0.722662 0.0945275 0.0909984 0.567112 1.74746
0.025 0.336266 0.924342 0.933721 0.850227 1.26282 -0.00809466 0.696458 0.0890362 0.0842578 0.579045 1.72199
0.0375 0.347691 0.882997 0.955106 0.841617 1.27301 -0.011855 0.671028 0.0841118 0.0780218 0.589148 1.69446
0.05 0.358813 0.843723 0.979391 0.837562 1.28869 -0.0149448 0.647089 0.0797801 0.0723459 0.598103 1.66689
0.0625 0.369629 0.80689 1.0054 0.835584 1.3073 -0.0174184 0.62475 0.0759666 0.0671856 0.606058 1.63964
0.075 0.380141 0.772511 1.03253 0.834225 1.32743 -0.0193786 0.603968 0.0725902 0.062487 0.613078 1.61277
0.0875 0.390348 0.740489 1.06038 0.832623 1.34821 -0.0209295 0.584658 0.0695809 0.0581987 0.619217 1.58632
0.1 0.40025 0.710687 1.08869 0.830258 1.36915 -0.0221626 0.56672 0.0668811 0.0542732 0.624531 1.56035
0.1125 0.409848 0.682951 1.11725 0.826814 1.38992 -0.0231534 0.550055 0.0644437 0.0506676 0.629075 1.5349
0.125 0.419141 0.657125 1.14595 0.822099 1.41034 -0.0239621 0.534562 0.0622306 0.0473438 0.632897 1.50999
0.1375 0.428129 0.633057 1.1747 0.815995 1.43031 -0.0246353 0.520149 0.0602106 0.0442686 0.636039 1.48563
0.15 0.436813 0.610601 1.20345 0.808433 1.44978 -0.0252083 0.506726 0.0583584 0.0414132 0.638538 1.46181
0.1625 0.445191 0.589623 1.23216 0.799375 1.46875 -0.0257072 0.49421 0.0566533 0.0387529 0.640425 1.43854
0.175 0.453266 0.569998 1.26082 0.788808 1.48724 -0.0261511 0.482527 0.0550782 0.0362665 0.641729 1.41579
0.1875 0.461035 0.551613 1.28941 0.776729 1.50529 -0.0265539 0.471606 0.0536192 0.0339358 0.642472 1.39354
0.2 0.4685 0.534363 1.31795 0.763144 1.52295 -0.0269255 0.461382 0.0522644 0.0317448 0.642676 1.37177
0.2125 0.47566 0.518153 1.34644 0.748066 1.54029 -0.0272729 0.451797 0.0510039 0.0296799 0.642358 1.35046
0.225 0.482516 0.502896 1.37489 0.731509 1.55738 -0.0276006 0.442795 0.0498293 0.027729 0.641532 1.32956
0.2375 0.489066 0.488513 1.40331 0.713488 1.57428 -0.0279117 0.434327 0.0487334 0.0258816 0.640211 1.30905
0.25 0.495313 0.474932 1.43173 0.694018 1.59107 -0.0282079 0.426347 0.0477101 0.0241284 0.638405 1.28889
0.2625 0.501254 0.462087 1.46016 0.673115 1.60784 -0.0284898 0.418812 0.046754 0.0224611 0.636126 1.26907
0.275 0.506891 0.449919 1.48861 0.650791 1.62465 -0.0287572 0.411682 0.0458606 0.0208724 0.633379 1.24954
0.2875 0.512223 0.438373 1.5171 0.627058 1.64158 -0.0290092 0.404923 0.0450259 0.0193557 0.630173 1.23027
0.3 0.51725 0.427399 1.54564 0.601928 1.65871 -0.0292441 0.398499 0.0442468 0.017905 0.626515 1.21124
0.3125 0.521973 0.416951 1.57424 0.575407 1.6761 -0.0294595 0.392381 0.0435203 0.0165151 0.622409 1.19242
0.325 0.526391 0.406988 1.6029 0.547504 1.69383 -0.029652 0.386539 0.0428443 0.015181 0.617862 1.17377
0.3375 0.530504 0.397471 1.63164 0.518222 1.71196 -0.0298176 0.380948 0.042217 0.0138984 0.612879 1.15528
0.35 0.534313 0.388366 1.66044 0.487568 1.73055 -0.0299514 0.375583 0.0416372 0.0126632 0.607467 1.13691
0.3625 0.537816 0.379642 1.68931 0.455545 1.74966 -0.0300475 0.370423 0.0411042 0.0114717 0.601631 1.11866
0.375 0.541016 0.37127 1.71823 0.422158 1.76933 -0.0300989 0.365448 0.0406179 0.0103205 0.59538 1.10049
0.3875 0.54391 0.363223 1.74718 0.387411 1.78962 -0.0300976 0.360638 0.0401786 0.00920627 0.58872 1.08239
0.4 0.5465 0.355478 1.77615 0.351312 1.81056 -0.0300343 0.355978 0.0397873 0.00812587 0.581662 1.06434
0.4125 0.548785 0.348015 1.8051 0.313868 1.83219 -0.0298984 0.351454 0.0394455 0.00707628 0.574214 1.04634
0.425 0.550766 0.340813 1.83401 0.275092 1.85453 -0.029678 0.347051 0.0391554 0.0060545 0.566389 1.02837
0.4375 0.552441 0.333857 1.86283 0.235 1.8776 -0.0293598 0.34276 0.0389198 0.00505751 0.558199 1.01042
0.45 0.553813 0.327132 1.89152 0.193612 1.9014 -0.0289291 0.338571 0.0387424 0.00408222 0.549659 0.9925
0.4625 0.554879 0.320626 1.92002 0.150955 1.92594 -0.0283694 0.334477 0.0386276 0.00312544 0.540784 0.974599
0.475 0.555641 0.314326 1.94827 0.107063 1.95121 -0.0276629 0.33047 0.0385805 0.00218378 0.531594 0.956722
0.4875 0.556098 0.308226 1.9762 0.0619794 1.97717 -0.0267901 0.326547 0.0386074 0.00125367 0.522106 0.938874
0.5 0.55625 0.302318 2.00374 0.0157549 2.00381 -0.0257297 0.322706 0.0387153 0.000331285 0.512342 0.921064
0.5125 0.556098 0.296597 2.03081 -0.0315476 2.03106 -0.0244592 0.318945 0.0389127 -0.000587465 0.502325 0.903304
0.525 0.555641 0.29106 2.05732 -0.079854 2.05887 -0.0229543 0.315264 0.0392091 -0.00150696 0.49208 0.885608
0.5375 0.554879 0.285705 2.08317 -0.129077 2.08717 -0.0211894 0.311667 0.0396153 -0.00243186 0.481631 0.867992
0.55 0.553813 0.280534 2.10827 -0.179115 2.11586 -0.0191381 0.308156 0.040144 -0.00336709 0.471005 0.850478
0.5625 0.552441 0.275548 2.1325 -0.229853 2.14485 -0.016773 0.304736 0.0408092 -0.00431777 0.460232 0.833087
0.575 0.550766 0.270751 2.15576 -0.281158 2.17402 -0.014067 0.301416 0.0416268 -0.00528916 0.449339 0.815844
0.5875 0.548785 0.26615 2.17795 -0.332883 2.20324 -0.0109936 0.298202 0.0426145 -0.00628648 0.438356 0.798775
0.6 0.5465 0.26175 2.19895 -0.384866 2.23237 -0.00752811 0.295106 0.0437921 -0.00731476 0.427312 0.781907
0.6125 0.54391 0.257562 2.21866 -0.436926 2.26127 -0.00364869 0.292138 0.045181 -0.00837854 0.416238 0.76527
0.625 0.541016 0.253595 2.23697 -0.488873 2.28977 0.000662075 0.289311 0.0468044 -0.00948162 0.405163 0.748893
0.6375 0.537816 0.249862 2.2538 -0.5405 2.3177 0.00541576 0.286638 0.0486869 -0.0106266 0.394115 0.732807
0.65 0.534313 0.246374 2.26906 -0.591591 2.34492 0.0106165 0.284133 0.0508539 -0.0118146 0.383124 0.717042
0.6625 0.530504 0.243147 2.2827 -0.641922 2.37124 0.0162594 0.281811 0.0533312 -0.0130446 0.372217 0.701628
0.675 0.526391 0.240194 2.29465 -0.691268 2.39651 0.0223293 0.279688 0.056144 -0.0143134 0.361418 0.686596
0.6875 0.521973 0.237532 2.30489 -0.739401 2.42059 0.0288001 0.277777 0.0593163 -0.0156149 0.350752 0.671974
0.7 0.51725 0.235176 2.31341 -0.786098 2.44332 0.0356337 0.276093 0.0628697 -0.0169402 0.340241 0.657789
0.7125 0.512223 0.233142 2.32022 -0.83115 2.4646 0.042781 0.274649 0.0668229 -0.0182777 0.329905 0.644066
0.725 0.506891 0.231447 2.32536 -0.874357 2.48431 0.0501826 0.273457 0.0711912 -0.019613 0.319761 0.630828
0.7375 0.501254 0.230107 2.32888 -0.915545 2.50238 0.0577701 0.272529 0.0759856 -0.0209299 0.309823 0.618095
0.75 0.495313 0.229139 2.33085 -0.954561 2.51874 0.0654689 0.271873 0.0812135 -0.0222106 0.300102 0.605883
0.7625 0.489066 0.228557 2.33137 -0.99128 2.53337 0.0732004 0.271499 0.0868784 -0.0234368 0.290606 0.594205
0.775 0.482516 0.228379 2.33055 -1.02561 2.54624 0.0808854 0.271412 0.0929809 -0.0245904 0.28134 0.583069
0.7875 0.47566 0.228621 2.3285 -1.05749 2.55739 0.088446 0.271618 0.0995196 -0.0256548 0.272306 0.57248
0.8 0.4685 0.229298 2.32536 -1.0869 2.56684 0.095809 0.272122 0.106492 -0.0266148 0.263502 0.562437
0.8125 0.461035 0.230427 2.32125 -1.11384 2.57465 0.102908 0.272929 0.113895 -0.027458 0.254923 0.552936
0.825 0.453266 0.232026 2.3163 -1.13834 2.58091 0.109683 0.274041 0.121728 -0.0281745 0.246562 0.543969
0.8375 0.445191 0.234112 2.31066 -1.16048 2.5857 0.116084 0.275464 0.129991 -0.0287574 0.238409 0.535521
0.85 0.436812 0.236705 2.30445 -1.18033 2.58914 0.122072 0.277202 0.138687 -0.0292026 0.230453 0.527578
0.8625 0.428129 0.239826 2.29779 -1.198 2.59135 0.127613 0.27926 0.147824 -0.0295085 0.222678 0.520119
0.875 0.419141 0.243499 2.29082 -1.21362 2.59244 0.132685 0.281645 0.157412 -0.0296755 0.21507 0.513121
0.8875 0.409848 0.24775 2.28366 -1.2273 2.59256 0.137272 0.284364 0.167469 -0.0297057 0.207611 0.506556
0.9 0.40025 0.252606 2.27643 -1.23919 2.59185 0.141362 0.287427 0.178015 -0.0296014 0.200281 0.500391
0.9125 0.390348 0.258096 2.26925 -1.24941 2.59047 0.144945 0.29084 0.189079 -0.0293646 0.19306 0.494584
0.925 0.380141 0.264249 2.26228 -1.25809 2.58857 0.148008 0.294609 0.200692 -0.0289937 0.18592 0.489083
0.9375 0.369629 0.27109 2.25568 -1.26535 2.58635 0.150528 0.298736 0.212888 -0.0284802 0.178833 0.483817
0.95 0.358812 0.278632 2.24967 -1.2713 2.58403 0.15246 0.3032 0.225695 -0.0277993 0.171762 0.478694
0.9625 0.347691 0.286869 2.24448 -1.276 2.58183 0.153733 0.307931 0.239103 -0.0268911 0.164669 0.473606
0.975 0.336266 0.295762 2.2403 -1.27952 2.57995 0.154269 0.312676 0.252954 -0.0256361 0.15754 0.468498
0.9875 0.324535 0.3053 2.23702 -1.28194 2.5783 0.154217 0.316522 0.266459 -0.0240437 0.150512 0.463777
1 0.3125 0.317058 2.23702 -1.28194 2.5783 0.154217 0.316522 0.276721 -0.0249696 0.14493 0.463777
0 0.325 1 0.866389 0.82307 1.19502 0 0.746269 0.1 0.095 0.55 1.69231
0.0125 0.336727 0.944632 0.885231 0.832305 1.21506 -0.00549632 0.722372 0.0919671 0.0875504 0.571891 1.69838
0.025 0.348156 0.893136 0.914462 0.831747 1.23614 -0.0105997 0.694946 0.0852826 0.0805787 0.585187 1.68082
0.0375 0.359289 0.848062 0.943886 0.829592 1.25664 -0.014717 0.668363 0.0798846 0.0745623 0.595452 1.65731
0.05 0.370125 0.808281 0.972492 0.827902 1.27717 -0.0178797 0.643625 0.0754645 0.0693053 0.604224 1.63249
0.0625 0.380664 0.772555 1.00076 0.826714 1.29806 -0.0202449 0.620829 0.0717683 0.0646048 0.611935 1.60755
0.075 0.390906 0.740037 1.02905 0.825559 1.31928 -0.0219837 0.599853 0.0686166 0.0603318 0.618736 1.58283
0.0875 0.400852 0.710177 1.05751 0.823951 1.34061 -0.0232515 0.580531 0.0658832 0.0564087 0.624704 1.55844
0.1 0.4105 0.682601 1.08615 0.821514 1.36184 -0.0241774 0.562701 0.0634774 0.0527855 0.629896 1.53446
0.1125 0.419852 0.657036 1.11491 0.817983 1.3828 -0.024863 0.546216 0.0613325 0.0494262 0.634358 1.51091
0.125 0.428906 0.633265 1.14375 0.813183 1.40336 -0.0253847 0.530947 0.059399 0.0463023 0.638133 1.48781
0.1375 0.437664 0.611111 1.17261 0.807003 1.42347 -0.0257977 0.516777 0.0576399 0.0433898 0.641255 1.46518
0.15 0.446125 0.590421 1.20145 0.799377 1.44309 -0.0261409 0.503605 0.0560271 0.0406679 0.643756 1.443
0.1625 0.454289 0.571062 1.23026 0.79027 1.46221 -0.0264405 0.49134 0.0545393 0.0381184 0.645663 1.42126
0.175 0.462156 0.552917 1.259 0.779668 1.48086 -0.0267137 0.4799 0.0531604 0.035725 0.646998 1.39996
0.1875 0.469727 0.535882 1.28768 0.767572 1.49909 -0.0269712 0.469212 0.0518775 0.0334733 0.647783 1.37906
0.2 0.477 0.519863 1.3163 0.753992 1.51695 -0.0272193 0.459211 0.0506809 0.0313504 0.648036 1.35857
0.2125 0.483977 0.504774 1.34486 0.73894 1.5345 -0.0274616 0.449836 0.0495623 0.0293447 0.647772 1.33844
0.225 0.490656 0.49054 1.37339 0.722435 1.55181 -0.0276993 0.441033 0.0485154 0.0274459 0.647004 1.31865
0.2375 0.497039 0.47709 1.40188 0.704493 1.56894 -0.0279327 0.432752 0.0475347 0.0256448 0.645745 1.29918
0.25 0.503125 0.464361 1.43036 0.685132 1.58598 -0.0281609 0.424949 0.0466157 0.023933 0.644005 1.28001
0.2625 0.508914 0.452297 1.45884 0.66437 1.603 -0.0283825 0.41758 0.0457544 0.022303 0.641792 1.2611
0.275 0.514406 0.440844 1.48734 0.642222 1.62007 -0.0285955 0.410608 0.0449476 0.0207482 0.639116 1.24243
0.2875 0.519602 0.429954 1.51587 0.618703 1.63727 -0.0287976 0.403999 0.0441925 0.0192624 0.635983 1.22398
0.3 0.5245 0.419584 1.54444 0.593825 1.65467 -0.0289857 0.397718 0.0434868 0.0178403 0.632402 1.20572
0.3125 0.529102 0.409694 1.57306 0.567598 1.67233 -0.0291564 0.391737 0.0428286 0.0164768 0.628377 1.18763
0.325 0.533406 0.400248 1.60174 0.540033 1.69033 -0.0293057 0.386028 0.0422165 0.0151675 0.623918 1.16969
