VARIABLES=
"X"
"Y"
"Rho"
"Vz"
"Vr"
"Vl"
"Vphi"
"Energy"
"Hz"
"Hr"
"Hphi*r"
"Hphi"
ZONE 
 F=FEPOINT, ET=Quadrilateral, N=3321 E=3200
 0 0.3 1 0.940497 0.940497 1.33006 0 0.746269 0 0 0.55 1.83333
0.0125 0.312344 0.996211 0.906766 0.884097 1.26643 0 0.728393 0 0 0.545486 1.74643
0.025 0.324375 0.941831 0.932646 0.886013 1.28641 0 0.702741 0 0 0.558149 1.72069
0.0375 0.336094 0.890576 0.963213 0.890972 1.3121 0 0.675192 0 0 0.568686 1.69205
0.05 0.3475 0.845019 0.993144 0.893829 1.33614 0 0.648839 0 0 0.578169 1.6638
0.0625 0.358594 0.804111 1.02246 0.894652 1.35861 0 0.624611 0 0 0.58669 1.63608
0.075 0.369375 0.766857 1.05163 0.893889 1.38021 0 0.602384 0 0 0.594208 1.60868
0.0875 0.379844 0.732677 1.08081 0.891671 1.40115 0 0.581866 0 0 0.600758 1.58159
0.1 0.39 0.701164 1.11012 0.888093 1.42164 0 0.562976 0 0 0.606431 1.55495
0.1125 0.399844 0.672093 1.13932 0.882971 1.44142 0 0.545615 0 0 0.611215 1.52863
0.125 0.409375 0.645374 1.16797 0.875975 1.45996 0 0.529614 0 0 0.615275 1.50296
0.1375 0.418594 0.620737 1.19612 0.867184 1.4774 0 0.514787 0 0 0.618753 1.47817
0.15 0.4275 0.597882 1.22407 0.856847 1.49416 0 0.50097 0 0 0.621608 1.45405
0.1625 0.436094 0.57658 1.252 0.845102 1.51053 0 0.48803 0 0 0.623807 1.43044
0.175 0.444375 0.556675 1.27997 0.83198 1.5266 0 0.475813 0 0 0.625364 1.40729
0.1875 0.452344 0.538039 1.30796 0.817473 1.54241 0 0.464275 0 0 0.626303 1.38457
0.2 0.46 0.520554 1.33598 0.801586 1.558 0 0.45341 0 0 0.626637 1.36225
0.2125 0.467344 0.504122 1.36405 0.784326 1.57346 0 0.44317 0 0 0.626388 1.34032
0.225 0.474375 0.488657 1.3922 0.765708 1.58887 0 0.433503 0 0 0.625579 1.31874
0.2375 0.481094 0.474076 1.42049 0.745756 1.60435 0 0.424362 0 0 0.624227 1.29752
0.25 0.4875 0.460294 1.44901 0.724507 1.62005 0 0.415803 0 0 0.622328 1.27657
0.2625 0.493594 0.447309 1.47758 0.70185 1.6358 0 0.407713 0 0 0.619986 1.25607
0.275 0.499375 0.435041 1.50627 0.677822 1.65176 0 0.400038 0 0 0.61719 1.23592
0.2875 0.504844 0.423447 1.53509 0.652413 1.66798 0 0.392789 0 0 0.613971 1.21616
0.3 0.51 0.412488 1.56401 0.625604 1.68449 0 0.385943 0 0 0.61036 1.19678
0.3125 0.514844 0.402105 1.59307 0.597402 1.7014 0 0.379464 0 0 0.606352 1.17774
0.325 0.519375 0.39224 1.62233 0.567815 1.71883 0 0.373309 0 0 0.601934 1.15896
0.3375 0.523594 0.382841 1.65182 0.536842 1.73687 0 0.367444 0 0 0.597093 1.14037
0.35 0.5275 0.373862 1.68158 0.504473 1.75562 0 0.361833 0 0 0.591821 1.12193
0.3625 0.531094 0.365262 1.71159 0.470688 1.77513 0 0.356447 0 0 0.586112 1.10359
0.375 0.534375 0.357003 1.74187 0.435468 1.79548 0 0.351258 0 0 0.57996 1.08531
0.3875 0.537344 0.349043 1.77245 0.398802 1.81677 0 0.346233 0 0 0.573347 1.067
0.4 0.54 0.341357 1.80354 0.360708 1.83926 0 0.341357 0 0 0.566278 1.04866
0.4125 0.542344 0.333946 1.83512 0.321146 1.86301 0 0.336627 0 0 0.558803 1.03035
0.425 0.544375 0.326803 1.86695 0.280043 1.88784 0 0.332032 0 0 0.550954 1.01209
0.4375 0.546094 0.319902 1.89891 0.237364 1.91369 0 0.327552 0 0 0.542731 0.993842
0.45 0.5475 0.313222 1.93088 0.193088 1.94051 0 0.32317 0 0 0.534138 0.975594
0.4625 0.548594 0.306741 1.9628 0.14721 1.96831 0 0.318871 0 0 0.525179 0.957318
0.475 0.549375 0.300446 1.99466 0.0997329 1.99715 0 0.314643 0 0 0.515865 0.939004
0.4875 0.549844 0.294324 2.02637 0.0506593 2.027 0 0.310478 0 0 0.506218 0.920657
0.5 0.55 0.288366 2.05787 0 2.05787 0 0.306367 0 0 0.496252 0.902276
0.5125 0.549844 0.282561 2.08907 -0.0522267 2.08972 0 0.302287 0 -0 0.485985 0.883861
0.525 0.549375 0.2769 2.11984 -0.105992 2.12249 0 0.298188 0 -0 0.475437 0.865414
0.5375 0.548594 0.27139 2.14999 -0.161249 2.15603 0 0.294219 0 -0 0.464651 0.846986
0.55 0.5475 0.266075 2.17906 -0.217906 2.18993 0 0.290328 0 -0 0.453737 0.828743
0.5625 0.546094 0.260941 2.20688 -0.27586 2.22405 0 0.286501 0 -0 0.442698 0.810663
0.575 0.544375 0.255988 2.2333 -0.334994 2.25828 0 0.28274 0 -0 0.431566 0.792773
0.5875 0.542344 0.251216 2.25815 -0.395177 2.29247 0 0.279055 0 -0 0.420367 0.775093
0.6 0.54 0.246637 2.28135 -0.456271 2.32653 0 0.275443 0 -0 0.409144 0.757674
0.6125 0.537344 0.242259 2.30284 -0.51814 2.36042 0 0.271932 0 -0 0.397938 0.740564
0.625 0.534375 0.238094 2.32255 -0.580637 2.39403 0 0.268497 0 -0 0.386787 0.723811
0.6375 0.531094 0.234122 2.34053 -0.643647 2.42742 0 0.265105 0 -0 0.375678 0.707366
0.65 0.5275 0.230313 2.35678 -0.707034 2.46055 0 0.261895 0 -0 0.364582 0.69115
0.6625 0.523594 0.226741 2.37122 -0.770648 2.49331 0 0.258753 0 -0 0.353632 0.675393
0.675 0.519375 0.223404 2.38459 -0.834605 2.52642 0 0.255696 0 -0 0.342838 0.660098
0.6875 0.514844 0.220311 2.3968 -0.898799 2.55978 0 0.25277 0 -0 0.332222 0.645287
0.7 0.51 0.217462 2.40783 -0.963134 2.59332 0 0.250006 0 -0 0.32179 0.630962
0.7125 0.504844 0.214855 2.41768 -1.02751 2.62697 0 0.247425 0 -0 0.311545 0.617112
0.725 0.499375 0.212483 2.4263 -1.09184 2.66065 0 0.245067 0 -0 0.301479 0.603712
0.7375 0.493594 0.210361 2.43369 -1.156 2.69429 0 0.242986 0 -0 0.291616 0.590801
0.75 0.4875 0.208523 2.43987 -1.21993 2.72786 0 0.241221 0 -0 0.281997 0.578456
0.7625 0.481094 0.207008 2.44484 -1.28354 2.76129 0 0.239794 0 -0 0.272659 0.566749
0.775 0.474375 0.205855 2.4485 -1.34668 2.79441 0 0.238707 0 -0 0.263622 0.555725
0.7875 0.467344 0.205085 2.45084 -1.40924 2.82711 0 0.237947 0 -0 0.254882 0.545385
0.8 0.46 0.204716 2.45186 -1.47112 2.85934 0 0.237499 0 -0 0.246419 0.535693
0.8125 0.452344 0.204764 2.45159 -1.53224 2.89103 0 0.237348 0 -0 0.238207 0.526605
0.825 0.444375 0.20524 2.45013 -1.59258 2.92224 0 0.23749 0 -0 0.230224 0.518084
0.8375 0.436094 0.206157 2.44766 -1.65217 2.95308 0 0.237932 0 -0 0.222456 0.510111
0.85 0.4275 0.207532 2.44434 -1.71104 2.9837 0 0.23869 0 -0 0.214895 0.502679
0.8625 0.418594 0.209386 2.44035 -1.76925 3.01422 0 0.239791 0 -0 0.20753 0.49578
0.875 0.409375 0.211744 2.4358 -1.82685 3.04475 0 0.241266 0 -0 0.200347 0.489396
0.8875 0.399844 0.214635 2.43083 -1.88389 3.07538 0 0.243131 0 -0 0.193328 0.48351
0.9 0.39 0.218101 2.42547 -1.94038 3.10612 0 0.24534 0 -0 0.186462 0.478108
0.9125 0.379844 0.222189 2.41973 -1.99628 3.13692 0 0.247929 0 -0 0.17973 0.473169
0.925 0.369375 0.226946 2.41365 -2.05161 3.16778 0 0.251025 0 -0 0.173108 0.468652
0.9375 0.358594 0.232424 2.40729 -2.10638 3.19873 0 0.254672 0 -0 0.166569 0.464507
0.95 0.3475 0.238675 2.4007 -2.16063 3.22981 0 0.258865 0 -0 0.160078 0.460657
0.9625 0.336094 0.245727 2.39438 -2.2148 3.26165 0 0.263584 0 -0 0.153599 0.457012
0.975 0.324375 0.253591 2.38878 -2.26934 3.29487 0 0.26869 0 -0 0.147092 0.453463
0.9875 0.312344 0.262363 2.38477 -2.32515 3.33068 0 0.273286 0 -0 0.140654 0.450317
1 0.3 0.273158 2.38477 -2.38477 3.37257 0 0.273286 0 -0 0.135095 0.450317
0 0.3125 1 0.902878 0.880306 1.261 0 0.746269 0 0 0.55 1.76
0.0125 0.324535 0.958787 0.906766 0.859683 1.24951 0 0.728393 0 0 0.566777 1.74643
0.025 0.336266 0.908527 0.932646 0.852953 1.26387 0 0.702741 0 0 0.578609 1.72069
0.0375 0.347691 0.860869 0.963213 0.854183 1.2874 0 0.675192 0 0 0.58831 1.69205
0.05 0.358813 0.818378 0.993144 0.856808 1.31166 0 0.648839 0 0 0.596991 1.6638
0.0625 0.369629 0.780105 1.02246 0.85898 1.33539 0 0.624611 0 0 0.604744 1.63608
0.075 0.380141 0.74514 1.05163 0.860163 1.35861 0 0.602384 0 0 0.611526 1.60868
0.0875 0.390348 0.712962 1.08081 0.859953 1.38119 0 0.581866 0 0 0.617371 1.58159
0.1 0.40025 0.683207 1.11012 0.858016 1.40305 0 0.562976 0 0 0.62237 1.55495
0.1125 0.409848 0.655688 1.13932 0.854221 1.42399 0 0.545615 0 0 0.626507 1.52863
0.125 0.419141 0.630338 1.16797 0.84861 1.44371 0 0.529614 0 0 0.629953 1.50296
0.1375 0.428129 0.606912 1.19612 0.841329 1.46237 0 0.514787 0 0 0.632848 1.47817
0.15 0.436813 0.585136 1.22407 0.832476 1.48032 0 0.50097 0 0 0.635149 1.45405
0.1625 0.445191 0.564798 1.252 0.822121 1.4978 0 0.48803 0 0 0.636821 1.43044
0.175 0.453266 0.545756 1.27997 0.810352 1.51492 0 0.475813 0 0 0.637876 1.40729
0.1875 0.461035 0.527896 1.30796 0.797122 1.53172 0 0.464275 0 0 0.638336 1.38457
0.2 0.4685 0.51111 1.33598 0.782405 1.54822 0 0.45341 0 0 0.638216 1.36225
0.2125 0.47566 0.495308 1.36405 0.766249 1.56453 0 0.44317 0 0 0.637534 1.34032
0.225 0.482516 0.480413 1.3922 0.748697 1.58075 0 0.433503 0 0 0.636315 1.31874
0.2375 0.489066 0.466348 1.42049 0.729779 1.59699 0 0.424362 0 0 0.634572 1.29752
0.25 0.495313 0.453034 1.44901 0.709526 1.6134 0 0.415803 0 0 0.632302 1.27657
0.2625 0.501254 0.440473 1.47758 0.68784 1.62984 0 0.407713 0 0 0.629608 1.25607
0.275 0.506891 0.428591 1.50627 0.66479 1.64645 0 0.400038 0 0 0.626479 1.23592
0.2875 0.512223 0.417347 1.53509 0.640306 1.66328 0 0.392789 0 0 0.622945 1.21616
0.3 0.51725 0.406706 1.56401 0.614412 1.68037 0 0.385943 0 0 0.619036 1.19678
0.3125 0.521973 0.396613 1.59307 0.58714 1.69783 0 0.379464 0 0 0.614748 1.17774
0.325 0.526391 0.387013 1.62233 0.558508 1.71578 0 0.373309 0 0 0.610065 1.15896
0.3375 0.530504 0.377855 1.65182 0.528521 1.73432 0 0.367444 0 0 0.604973 1.14037
0.35 0.534313 0.369095 1.68158 0.497177 1.75353 0 0.361833 0 0 0.599464 1.12193
0.3625 0.537816 0.360696 1.71159 0.46446 1.77349 0 0.356447 0 0 0.593531 1.10359
0.375 0.541016 0.352621 1.74187 0.430345 1.79424 0 0.351258 0 0 0.587168 1.08531
0.3875 0.54391 0.344829 1.77245 0.394802 1.81589 0 0.346233 0 0 0.580353 1.067
0.4 0.5465 0.337297 1.80354 0.357856 1.8387 0 0.341357 0 0 0.573094 1.04866
0.4125 0.548785 0.330026 1.83512 0.319547 1.86273 0 0.336627 0 0 0.56544 1.03035
0.425 0.550766 0.323011 1.86695 0.279845 1.88781 0 0.332032 0 0 0.557422 1.01209
0.4375 0.552441 0.316226 1.89891 0.238693 1.91385 0 0.327552 0 0 0.549039 0.993842
0.45 0.553813 0.309651 1.93088 0.196056 1.9408 0 0.32317 0 0 0.540296 0.975594
0.4625 0.554879 0.303267 1.9628 0.151915 1.96867 0 0.318871 0 0 0.531195 0.957318
0.475 0.555641 0.297058 1.99466 0.106284 1.99749 0 0.314643 0 0 0.521749 0.939004
0.4875 0.556098 0.291014 2.02637 0.0591938 2.02724 0 0.310478 0 0 0.511975 0.920657
0.5 0.55625 0.285126 2.05787 0.0106846 2.05789 0 0.306367 0 0 0.501891 0.902276
0.5125 0.556098 0.279383 2.08907 -0.0391783 2.08943 0 0.302287 0 0 0.491513 0.883861
0.525 0.555641 0.273777 2.11984 -0.0902867 2.12176 0 0.298188 0 0 0.480859 0.865414
0.5375 0.554879 0.268316 2.14999 -0.142496 2.15471 0 0.294219 0 0 0.469975 0.846986
0.55 0.553813 0.263042 2.17906 -0.195698 2.18783 0 0.290328 0 0 0.458968 0.828743
0.5625 0.552441 0.257942 2.20688 -0.250062 2.221 0 0.286501 0 0 0.447844 0.810663
0.575 0.550766 0.253017 2.2333 -0.30507 2.25404 0 0.28274 0 0 0.436632 0.792773
0.5875 0.548785 0.248268 2.25815 -0.360575 2.28676 0 0.279055 0 0 0.42536 0.775093
0.6 0.5465 0.243703 2.28135 -0.41638 2.31904 0 0.275443 0 0 0.414069 0.757674
0.6125 0.54391 0.239334 2.30284 -0.472265 2.35077 0 0.271932 0 0 0.4028 0.740564
0.625 0.541016 0.235172 2.32255 -0.527986 2.38181 0 0.268497 0 0 0.391593 0.723811
0.6375 0.537816 0.231196 2.34053 -0.583394 2.41215 0 0.265105 0 0 0.380433 0.707366
0.65 0.534313 0.227377 2.35678 -0.638518 2.44174 0 0.261895 0 0 0.36929 0.69115
0.6625 0.530504 0.223787 2.37122 -0.692815 2.47036 0 0.258753 0 0 0.358299 0.675393
0.675 0.526391 0.220427 2.38459 -0.745967 2.49854 0 0.255696 0 0 0.347469 0.660098
0.6875 0.521973 0.217302 2.3968 -0.797811 2.52609 0 0.25277 0 0 0.336822 0.645287
0.7 0.51725 0.214414 2.40783 -0.848207 2.55286 0 0.250006 0 0 0.326365 0.630962
0.7125 0.512223 0.21176 2.41768 -0.897056 2.57874 0 0.247425 0 0 0.316099 0.617112
0.725 0.506891 0.209333 2.4263 -0.944618 2.6037 0 0.245067 0 0 0.306016 0.603712
0.7375 0.501254 0.207146 2.43369 -0.990796 2.62765 0 0.242986 0 0 0.296141 0.590801
0.75 0.495313 0.205234 2.43987 -1.03535 2.65046 0 0.241221 0 0 0.286516 0.578456
0.7625 0.489066 0.203634 2.44484 -1.0781 2.67199 0 0.239794 0 0 0.277178 0.566749
0.775 0.482516 0.202382 2.4485 -1.11882 2.69201 0 0.238707 0 0 0.268146 0.555725
0.7875 0.47566 0.201499 2.45084 -1.15733 2.71036 0 0.237947 0 0 0.259418 0.545385
0.8 0.4685 0.201002 2.45186 -1.19346 2.7269 0 0.237499 0 0 0.250972 0.535693
0.8125 0.461035 0.200904 2.45159 -1.2271 2.74155 0 0.237348 0 0 0.242784 0.526605
0.825 0.453266 0.201214 2.45013 -1.25827 2.75434 0 0.23749 0 0 0.23483 0.518084
0.8375 0.445191 0.201944 2.44766 -1.28705 2.76541 0 0.237932 0 0 0.227097 0.510111
0.85 0.436812 0.203108 2.44434 -1.31356 2.77494 0 0.23869 0 0 0.219576 0.502679
0.8625 0.428129 0.204723 2.44035 -1.33793 2.78305 0 0.239791 0 0 0.212258 0.49578
0.875 0.419141 0.20681 2.4358 -1.36025 2.78987 0 0.241266 0 0 0.205126 0.489396
0.8875 0.409848 0.209396 2.43083 -1.38058 2.79552 0 0.243131 0 0 0.198165 0.48351
0.9 0.40025 0.212515 2.42547 -1.399 2.80002 0 0.24534 0 0 0.191363 0.478108
0.9125 0.390348 0.21621 2.41973 -1.41554 2.80337 0 0.247929 0 0 0.184701 0.473169
0.925 0.380141 0.220518 2.41365 -1.43024 2.80558 0 0.251025 0 0 0.178154 0.468652
0.9375 0.369629 0.225485 2.40729 -1.44313 2.80672 0 0.254672 0 0 0.171695 0.464507
0.95 0.358812 0.23115 2.4007 -1.45423 2.8068 0 0.258865 0 0 0.165289 0.460657
0.9625 0.347691 0.23753 2.39438 -1.46363 2.80629 0 0.263584 0 0 0.158899 0.457012
0.975 0.336266 0.244624 2.38878 -1.47109 2.80542 0 0.26869 0 0 0.152484 0.453463
0.9875 0.324535 0.252507 2.38477 -1.47513 2.80413 0 0.273286 0 0 0.146144 0.450317
1 0.3125 0.262232 2.38477 -1.47513 2.80413 0 0.273286 0 0 0.140724 0.450317
0 0.325 1 0.844061 0.801858 1.16422 0 0.746269 0 0 0.55 1.69231
0.0125 0.336727 0.938221 0.86831 0.820979 1.19498 0 0.728187 0 0 0.572795 1.70107
0.025 0.348156 0.870461 0.919386 0.838798 1.24453 0 0.693436 0 0 0.583726 1.67662
0.0375 0.359289 0.81841 0.960419 0.850392 1.2828 0 0.663241 0 0 0.593096 1.65075
0.05 0.370125 0.776683 0.994727 0.856804 1.31286 0 0.636789 0 0 0.601511 1.62516
0.0625 0.380664 0.740809 1.02617 0.860314 1.33909 0 0.613171 0 0 0.608797 1.5993
0.075 0.390906 0.708673 1.05649 0.86184 1.36343 0 0.591927 0 0 0.61504 1.57337
0.0875 0.400852 0.67943 1.08619 0.861482 1.38635 0 0.572591 0 0 0.620493 1.54794
0.1 0.4105 0.652704 1.11533 0.859057 1.40781 0 0.554749 0 0 0.625302 1.52327
0.1125 0.419852 0.628142 1.14392 0.854892 1.42807 0 0.538167 0 0 0.629584 1.49954
0.125 0.428906 0.605356 1.1723 0.848744 1.44729 0 0.522827 0 0 0.633344 1.47665
0.1375 0.437664 0.584127 1.2005 0.840928 1.46573 0 0.508592 0 0 0.636427 1.45414
0.15 0.446125 0.564286 1.22856 0.831588 1.48354 0 0.495316 0 0 0.638856 1.43201
0.1625 0.454289 0.545688 1.25656 0.820823 1.5009 0 0.48288 0 0 0.640645 1.41021
0.175 0.462156 0.528223 1.28455 0.808614 1.51787 0 0.47118 0 0 0.641823 1.38876
0.1875 0.469727 0.511796 1.31253 0.794986 1.53452 0 0.460148 0 0 0.642412 1.36763
0.2 0.477 0.496318 1.34051 0.779962 1.5509 0 0.449736 0 0 0.642431 1.34682
0.2125 0.483977 0.481715 1.36849 0.763515 1.56707 0 0.439882 0 0 0.641905 1.32631
0.225 0.490656 0.46792 1.39649 0.745627 1.58308 0 0.430525 0 0 0.640855 1.30612
0.2375 0.497039 0.454868 1.42458 0.7263 1.59904 0 0.421648 0 0 0.639295 1.28621
0.25 0.503125 0.442498 1.45282 0.705478 1.61505 0 0.413287 0 0 0.637232 1.26655
0.2625 0.508914 0.430769 1.48115 0.683259 1.63115 0 0.405495 0 0 0.634699 1.24716
0.275 0.514406 0.419683 1.50945 0.659657 1.6473 0 0.398207 0 0 0.631783 1.22818
0.2875 0.519602 0.409203 1.5377 0.63457 1.66349 0 0.39132 0 0 0.628512 1.2096
0.3 0.5245 0.39926 1.56603 0.608119 1.67996 0 0.384787 0 0 0.624857 1.19134
0.3125 0.529102 0.389798 1.59453 0.580394 1.69688 0 0.378576 0 0 0.620801 1.17331
0.325 0.533406 0.38077 1.62326 0.551436 1.71437 0 0.372655 0 0 0.61633 1.15546
0.3375 0.537414 0.372134 1.65227 0.521256 1.73254 0 0.366996 0 0 0.611437 1.13774
0.35 0.541125 0.363853 1.68156 0.489847 1.75145 0 0.36157 0 0 0.606116 1.1201
0.3625 0.544539 0.355898 1.71115 0.457197 1.77117 0 0.356356 0 0 0.600369 1.10253
0.375 0.547656 0.348242 1.741 0.423263 1.79171 0 0.351329 0 0 0.594198 1.08498
0.3875 0.550477 0.340854 1.77106 0.387975 1.81306 0 0.346468 0 0 0.587598 1.06743
0.4 0.553 0.333706 1.80136 0.351301 1.8353 0 0.341752 0 0 0.580561 1.04984
0.4125 0.555227 0.326788 1.83203 0.313309 1.85863 0 0.337173 0 0 0.573113 1.03221
0.425 0.557156 0.320104 1.86308 0.274075 1.88313 0 0.332727 0 0 0.5653 1.01462
0.4375 0.558789 0.313645 1.89429 0.233597 1.90864 0 0.328401 0 0 0.557144 0.997057
0.45 0.560125 0.307395 1.92555 0.191811 1.93508 0 0.324179 0 0 0.548656 0.979524
0.4625 0.561164 0.301339 1.95669 0.148682 1.96233 0 0.320048 0 0 0.539844 0.962008
0.475 0.561906 0.295464 1.98759 0.10422 1.99032 0 0.315995 0 0 0.530719 0.944497
0.4875 0.562352 0.289758 2.0182 0.058451 2.01904 0 0.312012 0 0 0.521296 0.926992
0.5 0.5625 0.284215 2.04843 0.0114254 2.04847 0 0.308088 0 0 0.511592 0.909497
0.5125 0.562352 0.278821 2.07826 -0.0367826 2.07859 0 0.304209 0 0 0.501619 0.892002
0.525 0.561906 0.273557 2.10773 -0.086082 2.10948 0 0.300361 0 0 0.491369 0.874467
0.5375 0.561164 0.268427 2.13675 -0.136318 2.14109 0 0.296558 0 0 0.480882 0.856936
0.55 0.560125 0.263477 2.16486 -0.187333 2.17295 0 0.292854 0 0 0.470267 0.839574
0.5625 0.558789 0.258719 2.19172 -0.23893 2.20471 0 0.289223 0 0 0.459574 0.822446
0.575 0.557156 0.254165 2.21714 -0.291075 2.23617 0 0.285678 0 0 0.44885 0.805609
0.5875 0.555227 0.249833 2.24101 -0.343449 2.26717 0 0.28226 0 0 0.438148 0.789134
0.6 0.553 0.245741 2.26329 -0.395841 2.29764 0 0.278939 0 0 0.427523 0.773098
0.6125 0.550477 0.241889 2.28401 -0.448134 2.32756 0 0.275765 0 0 0.416988 0.757504
0.625 0.547656 0.238291 2.30298 -0.500109 2.35665 0 0.27273 0 0 0.406588 0.742414
0.6375 0.544539 0.234928 2.32032 -0.55176 2.38502 0 0.269861 0 0 0.3963 0.727771
0.65 0.541125 0.231854 2.33643 -0.603063 2.41301 0 0.266977 0 0 0.386228 0.71375
0.6625 0.537414 0.228991 2.35142 -0.654046 2.44069 0 0.264146 0 0 0.376245 0.700102
0.675 0.533406 0.226319 2.36516 -0.704655 2.4679 0 0.261462 0 0 0.366333 0.68678
0.6875 0.529102 0.223876 2.37768 -0.754741 2.49459 0 0.258953 0 0 0.356559 0.673894
0.7 0.5245 0.221679 2.38898 -0.804053 2.52066 0 0.256628 0 0 0.346952 0.66149
0.7125 0.519602 0.219746 2.39906 -0.852296 2.54596 0 0.254505 0 0 0.337542 0.649616
0.725 0.514406 0.2181 2.40791 -0.898612 2.57012 0 0.252667 0 0 0.328363 0.638335
0.7375 0.508914 0.216763 2.41556 -0.943034 2.59312 0 0.251194 0 0 0.319443 0.627695
0.75 0.503125 0.215754 2.42215 -0.985865 2.6151 0 0.250085 0 0 0.310799 0.617738
0.7625 0.497039 0.215116 2.42768 -1.02704 2.63599 0 0.24935 0 0 0.302459 0.608521
0.775 0.490656 0.214903 2.43181 -1.06627 2.6553 0 0.248981 0 0 0.29445 0.600115
0.7875 0.483977 0.215131 2.43454 -1.10337 2.6729 0 0.248956 0 0 0.286758 0.592504
0.8 0.477 0.215816 2.43587 -1.13824 2.68869 0 0.249257 0 0 0.279342 0.585622
0.8125 0.469727 0.21698 2.4358 -1.17083 2.70258 0 0.249866 0 0 0.272162 0.579405
0.825 0.462156 0.218628 2.43449 -1.20125 2.71473 0 0.250782 0 0 0.265184 0.573798
0.8375 0.454289 0.220768 2.43223 -1.2297 2.72542 0 0.252013 0 0 0.258394 0.568787
0.85 0.446125 0.223418 2.42922 -1.25631 2.73486 0 0.253582 0 0 0.251783 0.564377
0.8625 0.437664 0.226606 2.4256 -1.28115 2.74315 0 0.255512 0 0 0.245338 0.560561
0.875 0.428906 0.230355 2.42144 -1.30427 2.75036 0 0.257872 0 0 0.239033 0.557308
0.8875 0.419852 0.234698 2.41696 -1.32568 2.75665 0 0.260721 0 0 0.232849 0.554599
0.9 0.4105 0.239692 2.41209 -1.34533 2.7619 0 0.264202 0 0 0.226775 0.552437
0.9125 0.400852 0.245395 2.40677 -1.36315 2.76599 0 0.2684 0 0 0.220791 0.550804
0.925 0.390906 0.251857 2.40105 -1.37915 2.76896 0 0.273325 0 0 0.214863 0.549653
0.9375 0.380664 0.259147 2.39499 -1.39332 2.7708 0 0.278855 0 0 0.208965 0.548947
0.95 0.370125 0.26736 2.38831 -1.40545 2.77116 0 0.284902 0 0 0.203063 0.548634
0.9625 0.359289 0.276552 2.38204 -1.4157 2.77098 0 0.291447 0 0 0.197145 0.548709
0.975 0.348156 0.286672 2.3764 -1.42406 2.77042 0 0.298401 0 0 0.191043 0.548728
0.9875 0.336727 0.297256 2.3721 -1.43009 2.76984 0 0.305115 0 0 0.18441 0.547654
1 0.325 0.307982 2.3721 -1.43009 2.76984 0 0.305115 0 0 0.177988 0.547654
0 0.3375 1 0.795201 0.735561 1.08323 0 0.746269 0 0 0.55 1.62963
0.0125 0.348918 0.931594 0.825659 0.770777 1.12952 0 0.728126 0 0 0.572779 1.64159
0.025 0.360047 0.852227 0.888416 0.806786 1.20008 0 0.693043 0 0 0.584308 1.62287
